Time,Extension,Load,
(sec),(mm),(N),(kgf)
0,0,0.051190713,0.00522
0.02,0.0115,0.163574922,0.01668
0.04,0.068,0.605854837,0.06178
0.06,0.16519,1.074612707,0.10958
0.08,0.27781,1.456189459,0.14849
0.1,0.38581,1.690176128,0.17235
0.12,0.48269,2.127356585,0.21693
0.14,0.57081,2.454408362,0.25028
0.16,0.65531,2.686727901,0.27397
0.18,0.73931,2.997304506,0.30564
0.2,0.82412,3.321708488,0.33872
0.22,0.90956,3.544809776,0.36147
0.24,0.99494,3.78732823,0.3862
0.26,1.07969,4.023178163,0.41025
0.28,1.16406,4.382395752,0.44688
0.3,1.24794,4.771229425,0.48653
0.32,1.33162,4.792313722,0.48868
0.34,1.41531,4.817811012,0.49128
0.36,1.49887,5.190954045,0.52933
0.38,1.58244,5.308928044,0.54136
0.4,1.666,5.538305588,0.56475
0.42,1.7495,5.707176101,0.58197
0.44,1.83294,5.804261936,0.59187
0.46,1.9165,5.812009189,0.59266
0.48,1.99994,5.988921155,0.6107
0.5,2.08325,6.279296062,0.64031
0.52,2.16669,6.464935946,0.65924
0.54,2.24994,6.581929281,0.67117
0.56,2.33312,6.633119994,0.67639
0.58,2.41656,6.887994827,0.70238
0.6,2.49987,6.972626217,0.71101
0.62,2.58325,7.079224502,0.72188
0.64,2.66669,7.337727796,0.74824
0.66,2.75006,7.484533347,0.76321
0.68,2.83337,7.640949414,0.77916
0.7,2.91675,7.88258527,0.8038
0.72,3.00006,7.871307623,0.80265
0.74,3.08337,8.109609218,0.82695
0.76,3.16675,8.240233796,0.84027
0.78,3.25,8.385078016,0.85504
0.8,3.33325,8.50854374,0.86763
0.82,3.41662,8.779403413,0.89525
0.84,3.49994,8.862956071,0.90377
0.86,3.58325,8.792348191,0.89657
0.88,3.66662,8.87923511,0.90543
0.9,3.75006,8.992894183,0.91702
0.92,3.83337,9.178534068,0.93595
0.94,3.91675,9.235412638,0.94175
0.96,4.00006,9.42644618,0.96123
0.98,4.08337,9.580116385,0.9769
1,4.16675,9.585608109,0.97746
1.02,4.25,9.693481259,0.98846
1.04,4.33325,9.767227267,0.99598
1.06,4.41669,9.782819841,0.99757
1.08,4.5,9.838717746,1.00327
1.1,4.58331,9.902068705,1.00973
1.12,4.66669,9.960320206,1.01567
1.14,4.75006,10.05181625,1.025
1.16,4.83331,10.22509976,1.04267
1.18,4.91669,10.46448008,1.06708
1.2,5,10.60981464,1.0819
1.22,5.08325,10.54361975,1.07515
1.24,5.16662,10.58353281,1.07922
1.26,5.24994,10.71837425,1.09297
1.28,5.33331,10.78172521,1.09943
1.3,5.41669,10.8833221,1.10979
1.32,5.5,11.09622448,1.1315
1.34,5.58331,11.10603113,1.1325
1.36,5.66675,11.18271913,1.14032
1.38,5.75006,11.21007968,1.14311
1.4,5.83331,11.36188662,1.15859
1.42,5.91669,11.46181639,1.16878
1.44,6.00006,11.56615914,1.17942
1.46,6.08331,11.57439673,1.18026
1.48,6.16669,11.68021048,1.19105
1.5,6.25,11.87242082,1.21065
1.52,6.33331,11.79171209,1.20242
1.54,6.41669,11.8836004,1.21179
1.56,6.5,11.91645268,1.21514
1.58,6.58331,11.92047341,1.21555
1.6,6.66669,11.95842514,1.21942
1.62,6.75006,12.05629551,1.2294
1.64,6.83331,12.10670169,1.23454
1.66,6.91669,12.16985652,1.24098
1.68,7,12.38491635,1.26291
1.7,7.08325,12.39266361,1.2637
1.72,7.16662,12.44777698,1.26932
1.74,7.25,12.59419026,1.28425
1.76,7.33337,12.69451229,1.29448
1.78,7.41675,12.62841547,1.28774
1.8,7.50006,12.63410333,1.28832
1.82,7.58337,12.76610084,1.30178
1.84,7.66675,12.80052218,1.30529
1.86,7.75006,12.80905396,1.30616
1.88,7.83325,12.78708707,1.30392
1.9,7.91662,12.81091723,1.30635
1.92,7.99994,13.14679499,1.3406
1.94,8.08325,13.31154671,1.3574
1.96,8.16669,13.25103968,1.35123
1.98,8.25012,13.38372365,1.36476
2,8.3335,13.31076218,1.35732
2.02,8.41687,13.2960522,1.35582
2.04,8.50019,13.26702452,1.35286
2.06,8.58331,13.46913958,1.37347
2.08,8.66656,13.59858736,1.38667
2.1,8.74981,13.63604876,1.39049
2.12,8.83306,13.3742112,1.36379
2.14,8.91656,13.3786242,1.36424
2.16,9,13.38352752,1.36474
2.18,9.08331,13.66801844,1.39375
2.2,9.16681,13.75137496,1.40225
2.22,9.25012,13.82335577,1.40959
2.24,9.33337,13.93750518,1.42123
2.26,9.41675,13.9034761,1.41776
2.28,9.50006,13.84267487,1.41156
2.3,9.58331,13.83149529,1.41042
2.32,9.66662,13.72411248,1.39947
2.34,9.74994,13.83335856,1.41061
2.36,9.83319,13.9845771,1.42603
2.38,9.91662,14.16884405,1.44482
2.4,10,14.27397134,1.45554
2.42,10.08331,14.36262346,1.46458
2.44,10.16675,14.41283351,1.4697
2.46,10.25006,14.28730839,1.4569
2.48,10.33331,14.27171581,1.45531
2.5,10.41675,14.29427111,1.45761
2.52,10.50006,14.36056406,1.46437
2.54,10.58331,14.320651,1.4603
2.56,10.66669,14.35340521,1.46364
2.58,10.75,14.58307695,1.48706
2.6,10.83325,14.51658786,1.48028
2.62,10.91668,14.47422313,1.47596
2.64,11.00006,14.50756574,1.47936
2.66,11.08337,14.58464601,1.48722
2.68,11.16681,14.63103147,1.49195
2.7,11.25006,14.68545838,1.4975
2.72,11.33331,14.61867509,1.49069
2.74,11.41662,14.55179374,1.48387
2.76,11.49994,14.56728824,1.48545
2.78,11.58325,14.68192798,1.49714
2.8,11.66669,14.89443809,1.51881
2.82,11.75006,14.97024349,1.52654
2.84,11.83331,14.94033321,1.52349
2.86,11.91675,14.92160251,1.52158
2.88,12.00006,14.904637,1.51985
2.9,12.08337,14.96171171,1.52567
2.92,12.16669,14.96112331,1.52561
2.94,12.25,14.89679168,1.51905
2.96,12.33325,14.9283691,1.52227
2.98,12.41669,15.0814509,1.53788
3,12.5,15.12901315,1.54273
3.02,12.58331,15.12842476,1.54267
3.04,12.66675,15.17530054,1.54745
3.06,12.75006,15.21246775,1.55124
3.08,12.83337,15.44086462,1.57453
3.1,12.91675,15.50941311,1.58152
3.12,13.00006,15.3595675,1.56624
3.14,13.08331,15.34917245,1.56518
3.16,13.16669,15.36456889,1.56675
3.18,13.25,15.46243925,1.57673
3.2,13.33325,15.41213114,1.5716
3.22,13.41662,15.25571507,1.55565
3.24,13.49994,15.2778781,1.55791
3.26,13.58325,15.41468087,1.57186
3.28,13.66675,15.49352634,1.5799
3.3,13.75006,15.55609276,1.58628
3.32,13.83331,15.52186755,1.58279
3.34,13.91669,15.42497785,1.57291
3.36,14,15.44027623,1.57447
3.38,14.08325,15.50656918,1.58123
3.4,14.16662,15.56423228,1.58711
3.42,14.25,15.57874612,1.58859
3.44,14.33325,15.73388733,1.60441
3.46,14.41669,15.73476993,1.6045
3.48,14.5,15.74477271,1.60552
3.5,14.58331,15.75359869,1.60642
3.52,14.66675,15.62473931,1.59328
3.54,14.75,15.58374752,1.5891
3.56,14.83331,15.69760272,1.60071
3.58,14.91669,15.74634177,1.60568
3.6,14.99994,15.76389568,1.60747
3.62,15.08325,15.84568314,1.61581
3.64,15.16662,15.78233218,1.60935
3.66,15.25,15.81881292,1.61307
3.68,15.33337,15.82391237,1.61359
3.7,15.41675,15.92580347,1.62398
3.72,15.50012,16.05554545,1.63721
3.74,15.58337,16.07241288,1.63893
3.76,15.66675,16.08329827,1.64004
3.78,15.75006,15.93423719,1.62484
3.8,15.83331,15.888244,1.62015
3.82,15.91668,15.86206024,1.61748
3.84,16,15.85303812,1.61656
3.86,16.08325,15.96051901,1.62752
3.88,16.16669,16.01416138,1.63299
3.9,16.25,15.94875103,1.62632
3.92,16.33331,15.83254223,1.61447
3.94,16.41675,15.90364044,1.62172
3.96,16.50006,15.97483672,1.62898
3.98,16.58331,15.99758815,1.6313
4,16.66668,16.03495148,1.63511
4.02,16.75006,16.06339077,1.63801
4.04,16.83337,16.24196986,1.65622
4.06,16.91681,16.21696291,1.65367
4.08,17.00006,16.28737465,1.66085
4.1,17.08331,16.3179714,1.66397
4.12,17.16662,16.34709715,1.66694
4.14,17.24993,16.23334001,1.65534
4.16,17.33325,16.20754852,1.65271
4.18,17.41668,16.279039,1.66
4.2,17.50006,16.34611649,1.66684
4.22,17.58331,16.43398407,1.6758
4.24,17.66669,16.3756345,1.66985
4.26,17.75,16.31198934,1.66336
4.28,17.83331,16.45075344,1.67751
4.3,17.91675,16.40211246,1.67255
4.32,18.00006,16.4142727,1.67379
4.34,18.08337,16.37269251,1.66955
4.36,18.16675,16.30581115,1.66273
4.38,18.25006,16.42231416,1.67461
4.4,18.33325,16.54891801,1.68752
4.42,18.41662,16.4567355,1.67812
4.44,18.49993,16.40122986,1.67246
4.46,18.58325,16.50959334,1.68351
4.48,18.66662,16.49203944,1.68172
4.5,18.75,16.57255203,1.68993
4.52,18.83331,16.55176194,1.68781
4.54,18.91681,16.57627856,1.69031
4.56,19.00012,16.48360572,1.68086
4.58,19.08337,16.46703248,1.67917
4.6,19.16668,16.51822319,1.68439
4.62,19.24993,16.68591691,1.70149
4.64,19.33318,16.75171953,1.7082
4.66,19.41662,16.76074165,1.70912
4.68,19.49994,16.77858975,1.71094
4.7,19.58331,16.69523323,1.70244
4.72,19.66675,16.58814461,1.69152
4.74,19.75006,16.60363912,1.6931
4.76,19.83331,16.56794291,1.68946
4.78,19.91675,16.75564219,1.7086
4.8,20.00006,16.88548224,1.72184
4.82,20.08337,16.94491054,1.7279
4.84,20.16668,16.75338666,1.70837
4.86,20.25,16.76113391,1.70916
4.88,20.33331,16.57941669,1.69063
4.9,20.41668,16.54195529,1.68681
4.92,20.5,16.62923447,1.69571
4.94,20.58325,16.74328581,1.70734
4.96,20.66668,16.79820305,1.71294
4.98,20.75006,16.71886725,1.70485
5,20.83331,16.6923893,1.70215
5.02,20.91675,16.78270854,1.71136
5.04,21.00006,16.86469214,1.71972
5.06,21.08337,16.91519639,1.72487
5.08,21.16675,16.89675988,1.72299
5.1,21.25006,16.93314256,1.7267
5.12,21.33331,16.93343675,1.72673
5.14,21.41662,16.99208052,1.73271
5.16,21.5,16.97589955,1.73106
5.18,21.58331,17.00571177,1.7341
5.2,21.66675,16.99835678,1.73335
5.22,21.75006,16.95108872,1.72853
5.24,21.83337,16.89597535,1.72291
5.26,21.91675,17.0451345,1.73812
5.28,22,17.12662776,1.74643
5.3,22.08331,17.12976589,1.74675
5.32,22.16668,17.08779343,1.74247
5.34,22.25,16.94569507,1.72798
5.36,22.33325,17.0216966,1.73573
5.38,22.41669,17.09603101,1.74331
5.4,22.5,17.15585158,1.74941
5.42,22.58331,17.30344166,1.76446
5.44,22.66675,17.25627167,1.75965
5.46,22.75006,17.09377548,1.74308
5.48,22.83337,17.08328237,1.74201
5.5,22.91675,17.12780456,1.74655
5.52,23,17.11319265,1.74506
5.54,23.08325,17.13702281,1.74749
5.56,23.16668,17.09622714,1.74333
5.58,23.25,16.99472832,1.73298
5.6,23.33331,17.03228779,1.73681
5.62,23.41668,17.23999263,1.75799
5.64,23.50006,17.35110198,1.76932
5.66,23.58337,17.29755767,1.76386
5.68,23.66675,17.2225368,1.75621
5.7,23.75006,17.11937084,1.74569
5.72,23.83331,16.95344232,1.72877
5.74,23.91662,17.06847433,1.7405
5.76,23.99993,17.20802295,1.75473
5.78,24.08318,17.30206873,1.76432
5.8,24.16662,17.06788593,1.74044
5.82,24.25,17.22430199,1.75639
5.84,24.33337,17.5556687,1.79018
5.86,24.41681,17.57400713,1.79205
5.88,24.50006,17.40699988,1.77502
5.9,24.58331,17.27372751,1.76143
5.92,24.66668,17.31442511,1.76558
5.94,24.74993,17.50271279,1.78478
5.96,24.83325,17.48947381,1.78343
5.98,24.91656,17.28206316,1.76228
6,24.99993,17.28686842,1.76277
6.02,25.08331,17.42278859,1.77663
6.04,25.16675,17.56733861,1.79137
6.06,25.25012,17.40405789,1.77472
6.08,25.3335,17.21851607,1.7558
6.1,25.41687,17.24891669,1.7589
6.12,25.50012,17.35178844,1.76939
6.14,25.58324,17.50241859,1.78475
6.16,25.6665,17.56694634,1.79133
6.18,25.74981,17.46927211,1.78137
6.2,25.83312,17.3188381,1.76603
6.22,25.91662,17.37375534,1.77163
6.24,26.00006,17.59558176,1.79425
6.26,26.08343,17.42749578,1.77711
6.28,26.16681,17.35443624,1.76966
6.3,26.25012,17.40964768,1.77529
6.32,26.33337,17.37483407,1.77174
6.34,26.41675,17.31668064,1.76581
6.36,26.50006,17.39601644,1.7739
6.38,26.58331,17.42631898,1.77699
6.4,26.66668,17.59175717,1.79386
6.42,26.74993,17.64579181,1.79937
6.44,26.83325,17.56665215,1.7913
6.46,26.91662,17.61352793,1.79608
6.48,27,17.75964702,1.81098
6.5,27.08331,17.68393968,1.80326
6.52,27.16668,17.54654851,1.78925
6.54,27.25006,17.55968942,1.79059
6.56,27.33337,17.66628771,1.80146
6.58,27.41675,17.77631832,1.81268
6.6,27.50006,17.8088764,1.816
6.62,27.58331,17.71179057,1.8061
6.64,27.66668,17.63598516,1.79837
6.66,27.74993,17.67168137,1.80201
6.68,27.83325,17.67530983,1.80238
6.7,27.91668,17.57851819,1.79251
6.72,28.00006,17.67795762,1.80265
6.74,28.08337,17.55674743,1.79029
6.76,28.16675,17.87977848,1.82323
6.78,28.25006,17.93675512,1.82904
6.8,28.33331,17.78730177,1.8138
6.82,28.41662,17.75248816,1.81025
6.84,28.5,17.79318576,1.8144
6.86,28.58325,17.83123556,1.81828
6.88,28.66668,17.86634337,1.82186
6.9,28.75,17.76523681,1.81155
6.92,28.83331,17.8100532,1.81612
6.94,28.91675,17.99647761,1.83513
6.96,29.00006,17.85898838,1.82111
6.98,29.08331,17.5743994,1.79209
7,29.16669,17.61941192,1.79668
7.02,29.25,17.82692064,1.81784
7.04,29.33325,18.00961853,1.83647
7.06,29.41662,17.89184066,1.82446
7.08,29.5,17.72738314,1.80769
7.1,29.58331,17.54037032,1.78862
7.12,29.66675,17.62451138,1.7972
7.14,29.75006,17.82554771,1.8177
7.16,29.83337,17.97196099,1.83263
7.18,29.91674,17.91929928,1.82726
7.2,30.00006,17.90704097,1.82601
7.22,30.08331,17.83976735,1.81915
7.24,30.16668,17.9057661,1.82588
7.26,30.25,17.85222179,1.82042
7.28,30.33325,17.70031678,1.80493
7.3,30.41662,17.87487515,1.82273
7.32,30.49999,18.05100259,1.84069
7.34,30.58331,18.01491412,1.83701
7.36,30.66675,17.98882843,1.83435
7.38,30.75006,18.11209802,1.84692
7.4,30.83337,18.02942796,1.83849
7.42,30.91668,17.98235604,1.83369
7.44,31,17.99412402,1.83489
7.46,31.08324,18.01275665,1.83679
7.48,31.16662,18.01815031,1.83734
7.5,31.25,18.05776918,1.84138
7.52,31.33331,17.93724545,1.82909
7.54,31.41668,17.85153533,1.82035
7.56,31.50006,17.8106416,1.81618
7.58,31.58337,17.83957121,1.81913
7.6,31.66674,17.93802998,1.82917
7.62,31.75006,18.08159934,1.84381
7.64,31.83331,18.05414072,1.84101
7.66,31.91662,18.06286864,1.8419
7.68,31.99999,18.20614379,1.85651
7.7,32.08324,18.23585794,1.85954
7.72,32.16668,18.21369491,1.85728
7.74,32.25006,18.15171688,1.85096
7.76,32.33337,18.1039585,1.84609
7.78,32.41681,18.17476251,1.85331
7.8,32.50006,18.30725035,1.86682
7.82,32.58331,18.33117858,1.86926
7.84,32.66668,18.3794273,1.87418
7.86,32.75006,18.34932088,1.87111
7.88,32.83331,18.28930418,1.86499
7.9,32.91668,18.39894253,1.87617
7.92,33,18.29499204,1.86557
7.94,33.08331,18.27341741,1.86337
7.96,33.16668,18.32696172,1.86883
7.98,33.25006,18.29038292,1.8651
8,33.33331,18.33137471,1.86928
8.02,33.41675,18.39148948,1.87541
8.04,33.49999,18.39031268,1.87529
8.06,33.58331,18.17054565,1.85288
8.08,33.66668,17.99353562,1.83483
8.1,33.75006,18.18917829,1.85478
8.12,33.83337,18.40002126,1.87628
8.14,33.91681,18.32725592,1.86886
8.16,34.00006,18.23683861,1.85964
8.18,34.08324,18.19192415,1.85506
8.2,34.16662,18.27851687,1.86389
8.22,34.24993,18.42963735,1.8793
8.24,34.33324,18.36148113,1.87235
8.26,34.41668,18.32568686,1.8687
8.28,34.49999,18.41012211,1.87731
8.3,34.58331,18.26331656,1.86234
8.32,34.66668,18.19486614,1.85536
8.34,34.75,18.16603459,1.85242
8.36,34.83331,18.1402431,1.84979
8.38,34.91668,18.14955942,1.85074
8.4,35.00006,18.24438973,1.86041
8.42,35.08331,18.23301401,1.85925
8.44,35.16675,18.24056513,1.86002
8.46,35.24999,18.48808498,1.88526
8.48,35.33325,18.47984739,1.88442
8.5,35.41662,18.35275321,1.87146
8.52,35.49999,18.45925343,1.88232
8.54,35.58324,18.72354265,1.90927
8.56,35.66662,18.54869008,1.89144
8.58,35.75,18.70030089,1.9069
8.6,35.83337,18.61714049,1.89842
8.62,35.91681,18.56732271,1.89334
8.64,36.00012,18.52191792,1.88871
8.66,36.08337,18.56418458,1.89302
8.68,36.16668,18.50004909,1.88648
8.7,36.24993,18.47818026,1.88425
8.72,36.33318,18.41071051,1.87737
8.74,36.41662,18.52250632,1.88877
8.76,36.5,18.63518473,1.90026
8.78,36.58331,18.56222325,1.89282
8.8,36.66668,18.59203547,1.89586
8.82,36.75006,18.63155627,1.89989
8.84,36.83337,18.66617374,1.90342
8.86,36.91674,18.73403576,1.91034
8.88,37.00006,18.72354265,1.90927
8.9,37.08337,18.65038504,1.90181
8.92,37.16674,18.63802866,1.90055
8.94,37.25006,18.72050258,1.90896
8.96,37.33324,18.67862819,1.90469
8.98,37.41668,18.60478411,1.89716
9,37.49999,18.61517916,1.89822
9.02,37.58331,18.66960607,1.90377
9.04,37.66668,18.66784087,1.90359
9.06,37.75006,18.68029532,1.90486
9.08,37.83337,18.70795007,1.90768
9.1,37.91675,18.70736167,1.90762
9.12,38.00006,18.73619322,1.91056
9.14,38.08331,18.81552902,1.91865
9.16,38.16668,18.79415053,1.91647
9.18,38.25,18.75492393,1.91247
9.2,38.33324,18.74041008,1.91099
9.22,38.41662,18.68853291,1.9057
9.24,38.5,18.79885772,1.91695
9.26,38.58331,18.79415053,1.91647
9.28,38.66674,18.89260929,1.92651
9.3,38.75006,19.01842861,1.93934
9.32,38.83331,18.95056659,1.93242
9.34,38.91668,18.7687513,1.91388
9.36,38.99993,18.86083575,1.92327
9.38,39.08325,18.90163141,1.92743
9.4,39.16662,18.87858578,1.92508
9.42,39.24993,18.8311216,1.92024
9.44,39.33324,18.9883222,1.93627
9.46,39.41668,19.09658761,1.94731
9.48,39.50006,19.04372977,1.94192
9.5,39.58337,18.8480871,1.92197
9.52,39.66675,19.0433375,1.94188
9.54,39.75006,19.20632403,1.9585
9.56,39.8333,19.07491492,1.9451
9.58,39.91668,18.9045734,1.92773
9.6,39.99999,19.0240184,1.93991
9.62,40.08324,19.11688738,1.94938
9.64,40.16662,19.03068692,1.94059
9.66,40.25,18.93095329,1.93042
9.68,40.33331,18.97194509,1.9346
9.7,40.41674,18.96674757,1.93407
9.72,40.50006,18.89663002,1.92692
9.74,40.58337,19.0061703,1.93809
9.76,40.66675,18.98224207,1.93565
9.78,40.75006,19.13385288,1.95111
9.8,40.8333,19.20622596,1.95849
9.82,40.91662,19.06873673,1.94447
9.84,40.99999,19.04294524,1.94184
9.86,41.08324,19.0251952,1.94003
9.88,41.16668,19.1024716,1.94791
9.9,41.25006,19.01028909,1.93851
9.92,41.33337,19.03372699,1.9409
9.94,41.41674,19.24290283,1.96223
9.96,41.50006,19.3612691,1.9743
9.98,41.58331,19.25104235,1.96306
10,41.66668,19.32959362,1.97107
10.02,41.74993,19.21230608,1.95911
10.04,41.83325,19.25418048,1.96338
10.06,41.91668,19.17327561,1.95513
10.08,41.99999,19.15591784,1.95336
10.1,42.08331,19.11463185,1.94915
10.12,42.16681,19.03323665,1.94085
10.14,42.25018,19.04059164,1.9416
10.16,42.3335,19.20308783,1.95817
10.18,42.41687,19.21534614,1.95942
10.2,42.50005,19.20014584,1.95787
10.22,42.58324,19.17955187,1.95577
10.24,42.66656,19.23035032,1.96095
10.26,42.74987,19.24927715,1.96288
10.28,42.83318,19.27702997,1.96571
10.3,42.91662,19.38637412,1.97686
10.32,43.00006,19.42560072,1.98086
10.34,43.08337,19.38657025,1.97688
10.36,43.16675,19.31115711,1.96919
10.38,43.25012,19.32929942,1.97104
10.4,43.33337,19.33430081,1.97155
10.42,43.41675,19.38549152,1.97677
10.44,43.50006,19.51631223,1.99011
10.46,43.58331,19.48169476,1.98658
10.48,43.66662,19.39412137,1.97765
10.5,43.74993,19.43462284,1.98178
10.52,43.83324,19.36293623,1.97447
10.54,43.91662,19.29330901,1.96737
10.56,44,19.49954286,1.9884
10.58,44.08331,19.59319637,1.99795
10.6,44.16674,19.58593945,1.99721
10.62,44.25006,19.61938012,2.00062
10.64,44.33337,19.55906923,1.99447
10.66,44.41674,19.54298632,1.99283
10.68,44.49999,19.55053744,1.9936
10.7,44.58325,19.56632615,1.99521
10.72,44.66662,19.44080103,1.98241
10.74,44.74993,19.44619468,1.98296
10.76,44.83324,19.47796823,1.9862
10.78,44.91668,19.54788964,1.99333
10.8,45.00006,19.51072244,1.98954
10.82,45.08343,19.58162452,1.99677
10.84,45.1668,19.64801554,2.00354
10.86,45.25006,19.62232212,2.00092
10.88,45.33324,19.65144787,2.00389
10.9,45.41662,19.82835983,2.02193
10.92,45.49999,19.91573709,2.03084
10.94,45.58331,19.96212254,2.03557
10.96,45.66668,19.7497105,2.01391
10.98,45.75012,19.72970494,2.01187
11,45.83337,19.84483501,2.02361
11.02,45.91674,20.02959229,2.04245
11.04,46.00006,20.02763096,2.04225
11.06,46.0833,19.80374514,2.01942
11.08,46.16662,19.67135537,2.00592
11.1,46.24993,19.62595058,2.00129
11.12,46.33325,19.67802389,2.0066
11.14,46.41668,19.67998522,2.0068
11.16,46.49999,19.8316941,2.02227
11.18,46.58337,19.92848573,2.03214
11.2,46.66681,19.90112518,2.02935
11.22,46.75012,20.0641117,2.04597
11.24,46.83337,20.05234372,2.04477
11.26,46.91674,19.93486005,2.03279
11.28,47.00006,19.81923965,2.021
11.3,47.08331,19.81463052,2.02053
11.32,47.16668,19.79815535,2.01885
11.34,47.24999,19.86170244,2.02533
11.36,47.33331,19.89122046,2.02834
11.38,47.41668,19.87356849,2.02654
11.4,47.49999,19.91073569,2.03033
11.42,47.58331,20.02155084,2.04163
11.44,47.66674,20.03371109,2.04287
11.46,47.75005,20.14786049,2.05451
11.48,47.8333,20.06077744,2.04563
11.5,47.91668,20.01380359,2.04084
11.52,47.99999,19.99213089,2.03863
11.54,48.08324,20.07911588,2.0475
11.56,48.16662,20.05057852,2.04459
11.58,48.24999,20.03096522,2.04259
11.6,48.3333,19.98487397,2.03789
11.62,48.41668,19.89563345,2.02879
11.64,48.50006,19.95143329,2.03448
11.66,48.5833,20.11098749,2.05075
11.68,48.66675,20.15443095,2.05518
11.7,48.74999,20.30466883,2.0705
11.72,48.83324,20.39528227,2.07974
11.74,48.91662,20.2599505,2.06594
11.76,48.99999,20.13834804,2.05354
11.78,49.08324,20.17747657,2.05753
11.8,49.16668,20.15266575,2.055
11.82,49.25005,20.2233717,2.06221
11.84,49.33331,20.23719907,2.06362
11.86,49.41668,20.16257047,2.05601
11.88,49.5,20.02880776,2.04237
11.9,49.58331,19.89759478,2.02899
11.92,49.66668,20.0843134,2.04803
11.94,49.74999,20.15953041,2.0557
11.96,49.83325,20.2011106,2.05994
11.98,49.91662,20.35576147,2.07571
12,49.99993,20.3366385,2.07376
12.02,50.08325,20.16874866,2.05664
