Time,Extension,Load
(sec),(mm),(N)
0.00000,-0.00006,3.15306
0.10000,0.07575,3.41839
0.20000,0.16469,3.98620
0.30000,0.24931,3.96469
0.40000,0.33300,4.16251
0.50000,0.41669,4.20342
0.60000,0.49987,4.48600
0.70000,0.58331,4.52496
0.80000,0.66669,4.67666
0.90000,0.74987,4.53868
1.00000,0.83331,4.82493
1.10000,0.91681,4.96155
1.20000,0.99994,4.92328
1.30000,1.08331,5.37486
1.40000,1.16675,5.31248
1.50000,1.24994,5.24065
1.60000,1.33331,5.34276
1.70000,1.41675,5.48036
1.80000,1.49994,5.49290
1.90000,1.58337,5.72011
2.00000,1.66669,5.86677
2.10000,1.74994,5.90303
2.20000,1.83337,5.70791
2.30000,1.91675,5.96849
2.40000,1.99994,6.23167
2.50000,2.08331,6.32026
2.60000,2.16675,6.26710
2.70000,2.24987,6.29557
2.80000,2.33331,6.38612
2.90000,2.41675,6.33011
3.00000,2.49994,6.56335
3.10000,2.58331,6.68482
3.20000,2.66681,6.64856
3.30000,2.75000,6.86882
3.40000,2.83337,6.91840
3.50000,2.91675,6.84515
3.60000,2.99994,7.03836
3.70000,3.08325,7.17095
3.80000,3.16669,7.15659
3.90000,3.24987,6.94006
4.00000,3.33331,7.12494
4.10000,3.41675,7.10990
4.20000,3.49994,7.46534
4.30000,3.58331,7.38018
4.40000,3.66669,7.56084
4.50000,3.74994,7.39135
4.60000,3.83331,7.74464
4.70000,3.91675,7.73920
4.80000,3.99994,7.60984
4.90000,4.08331,7.92212
5.00000,4.16669,7.93696
5.10000,4.24987,7.70622
5.20000,4.33337,8.12483
5.30000,4.41675,7.89409
5.40000,4.49994,8.17270
5.50000,4.58337,8.20587
5.60000,4.66675,8.16927
5.70000,4.74994,7.97553
5.80000,4.83325,8.22807
5.90000,4.91669,8.34405
6.00000,4.99994,8.41006
6.10000,5.08331,8.52432
6.20000,5.16675,8.35229
6.30000,5.24994,8.46964
6.40000,5.33337,8.45911
6.50000,5.41675,8.37963
6.60000,5.49994,8.85669
6.70000,5.58331,8.61728
6.80000,5.66675,8.93543
6.90000,5.74981,8.66030
7.00000,5.83331,8.88962
7.10000,5.91675,8.89442
7.20000,5.99994,9.03304
7.30000,6.08331,9.04980
7.40000,6.16675,9.23080
7.50000,6.24987,9.02721
7.60000,6.33337,9.11468
7.70000,6.41675,9.08204
7.80000,6.49994,9.31753
7.90000,6.58337,9.20047
8.00000,6.66675,9.22831
8.10000,6.74987,9.44121
8.20000,6.83325,9.42994
8.30000,6.91675,9.40716
8.40000,6.99987,9.48849
8.50000,7.08331,9.43303
8.60000,7.16675,9.45861
8.70000,7.25000,9.60134
8.80000,7.33331,9.60747
8.90000,7.41675,9.70782
9.00000,7.49994,9.77166
9.10000,7.58331,9.84335
9.20000,7.66675,9.73100
9.30000,7.74994,9.89524
9.40000,7.83331,9.73903
9.50000,7.91669,9.87868
9.60000,7.99987,9.85433
9.70000,8.08331,9.84781
9.80000,8.16681,9.91269
9.90000,8.25000,10.06468
10.00000,8.33337,10.02539
10.10000,8.41675,10.05763
10.20000,8.49994,10.18307
10.30000,8.58325,10.32889
10.40000,8.66669,10.20865
10.50000,8.74987,10.28313
10.60000,8.83331,10.19243
10.70000,8.91675,10.31620
10.80000,8.99994,10.42106
10.90000,9.08337,10.49226
11.00000,9.16675,10.51676
11.10000,9.24987,10.54013
11.20000,9.33331,10.53092
11.30000,9.41669,10.36260
11.40000,9.49987,10.61187
11.50000,9.58331,10.65058
11.60000,9.66675,10.66248
11.70000,9.74994,10.51191
11.80000,9.83331,10.69634
11.90000,9.91675,10.70374
12.00000,9.99994,10.71623
12.10000,10.08337,10.79880
12.20000,10.16675,10.73353
12.30000,10.24994,10.82095
12.40000,10.33331,10.62162
12.50000,10.41675,10.98377
12.60000,10.49987,10.97990
12.70000,10.58325,11.08075
12.80000,10.66675,10.87568
12.90000,10.74994,11.08422
13.00000,10.83337,11.13690
13.10000,10.91675,11.31859
13.20000,10.99994,11.04742
13.30000,11.08331,11.06129
13.40000,11.16669,11.29012
13.50000,11.24987,11.30908
13.60000,11.33331,11.36833
13.70000,11.41675,11.25239
13.80000,11.49994,11.52581
13.90000,11.58337,11.26900
14.00000,11.66675,11.56579
14.10000,11.74994,11.30761
14.20000,11.83331,11.54139
14.30000,11.91675,11.46691
14.40000,11.99994,11.60945
14.50000,12.08325,11.67546
14.60000,12.16669,11.56477
14.70000,12.24994,11.64513
14.80000,12.33331,11.59657
14.90000,12.41675,11.55193
15.00000,12.50000,11.74116
15.10000,12.58331,11.66183
15.20000,12.66675,11.61357
15.30000,12.75000,11.79237
15.40000,12.83331,11.68942
15.50000,12.91675,11.73847
15.60000,12.99994,11.86876
15.70000,13.08331,11.95975
15.80000,13.16669,11.72666
15.90000,13.24994,11.92075
16.00000,13.33337,12.10455
16.10000,13.41675,11.94794
16.20000,13.49994,12.01297
16.30000,13.58337,12.08225
16.40000,13.66668,12.03149
16.50000,13.74987,12.05893
16.60000,13.83331,12.09093
16.70000,13.91675,12.10136
16.80000,13.99994,12.08808
16.90000,14.08331,12.18143
17.00000,14.16675,12.16496
17.10000,14.24987,12.18256
17.20000,14.33325,12.05217
17.30000,14.41675,12.19554
17.40000,14.49994,12.29741
17.50000,14.58337,12.25488
17.60000,14.66675,12.11508
17.70000,14.74994,12.12777
17.80000,14.83331,12.20044
17.90000,14.91669,12.39262
18.00000,14.99987,12.42907
18.10000,15.08337,12.53237
18.20000,15.16681,12.20024
18.30000,15.24994,12.55814
18.40000,15.33331,12.32328
18.50000,15.41675,12.48724
18.60000,15.49987,12.56372
18.70000,15.58331,12.56372
18.80000,15.66668,12.48077
18.90000,15.74987,12.50301
19.00000,15.83337,12.57304
19.10000,15.91675,12.53658
19.20000,15.99994,12.69994
19.30000,16.08337,12.56221
19.40000,16.16675,12.74302
19.50000,16.24987,12.62395
19.60000,16.33331,12.63615
19.70000,16.41668,12.89168
19.80000,16.49987,12.83038
19.90000,16.58331,12.87409
20.00000,16.66675,12.90589
20.10000,16.75000,12.82519
20.20000,16.83337,13.02094
20.30000,16.91675,12.89256
20.40000,16.99987,12.96915
20.50000,17.08337,12.93299
20.60000,17.16681,12.93750
20.70000,17.24993,12.81990
20.80000,17.33331,12.91104
20.90000,17.41675,12.98316
21.00000,17.49994,13.01041
21.10000,17.58325,13.10414
21.20000,17.66675,13.04838
21.30000,17.74994,13.09969
21.40000,17.83331,13.13560
21.50000,17.91675,13.18872
21.60000,17.99993,12.93186
21.70000,18.08337,13.17627
21.80000,18.16675,13.02908
21.90000,18.24994,13.27643
22.00000,18.33331,13.21430
22.10000,18.41675,13.44293
22.20000,18.49987,13.12433
22.30000,18.58331,13.11056
22.40000,18.66675,13.25614
22.50000,18.75000,13.25203
22.60000,18.83331,13.25046
22.70000,18.91675,13.29108
22.80000,19.00000,13.37203
22.90000,19.08337,13.37051
23.00000,19.16668,13.34037
23.10000,19.24987,13.52584
23.20000,19.33331,13.27045
23.30000,19.41668,13.35694
23.40000,19.49994,13.66534
23.50000,19.58337,13.44832
23.60000,19.66681,13.30999
23.70000,19.74993,13.57890
23.80000,19.83331,13.54519
23.90000,19.91675,13.62795
24.00000,19.99993,13.59591
24.10000,20.08325,13.45792
24.20000,20.16668,13.45969
24.30000,20.24994,13.85159
24.40000,20.33331,13.62687
24.50000,20.41675,13.59522
24.60000,20.49993,13.73732
24.70000,20.58331,13.81680
24.80000,20.66675,13.74781
24.90000,20.74993,13.58905
25.00000,20.83337,13.72875
25.10000,20.91681,13.85624
25.20000,20.99987,13.81538
25.30000,21.08331,13.98173
25.40000,21.16668,13.86590
25.50000,21.24993,13.94689
25.60000,21.33331,13.88123
25.70000,21.41675,13.80906
25.80000,21.50000,13.73908
25.90000,21.58337,13.93577
26.00000,21.66675,13.75864
26.10000,21.74993,13.82581
26.20000,21.83331,14.12731
26.30000,21.91668,14.01192
26.40000,21.99993,14.09090
26.50000,22.08331,14.04073
26.60000,22.16675,14.02083
26.70000,22.24993,14.16529
26.80000,22.33331,14.03568
26.90000,22.41675,13.94949
27.00000,22.49993,14.08218
27.10000,22.58331,14.09375
27.20000,22.66675,14.25696
27.30000,22.74987,14.16700
27.40000,22.83331,14.05420
27.50000,22.91668,14.33776
27.60000,22.99987,14.22443
27.70000,23.08337,14.38882
27.80000,23.16675,14.27431
27.90000,23.24993,14.24324
28.00000,23.33337,14.19743
28.10000,23.41681,14.23006
28.20000,23.49993,14.25407
28.30000,23.58331,14.25295
28.40000,23.66669,14.37775
28.50000,23.74987,14.31944
28.60000,23.83331,14.46894
28.70000,23.91668,14.34604
28.80000,23.99993,14.43096
28.90000,24.08337,14.33865
29.00000,24.16675,14.64563
29.10000,24.24994,14.46193
29.20000,24.33331,14.48276
29.30000,24.41674,14.70977
29.40000,24.49993,14.54268
29.50000,24.58337,14.53239
29.60000,24.66675,14.55336
29.70000,24.74993,14.50510
29.80000,24.83325,14.43532
29.90000,24.91668,14.79229
30.00000,24.99993,14.65122
30.10000,25.08337,14.75632
30.20000,25.16681,14.74485
30.30000,25.25000,14.56934
30.40000,25.33331,14.67341
30.50000,25.41675,14.56684
30.60000,25.49981,14.77773
30.70000,25.58331,14.71320
30.80000,25.66675,14.90685
30.90000,25.74987,14.83683
31.00000,25.83337,14.82330
31.10000,25.91681,14.97079
31.20000,25.99993,15.07462
31.30000,26.08331,14.83002
31.40000,26.16668,14.87813
31.50000,26.24987,14.85559
31.60000,26.33331,14.91523
31.70000,26.41669,14.87941
31.80000,26.49993,14.75637
31.90000,26.58337,14.89200
32.00000,26.66681,14.87789
32.10000,26.74993,14.92723
32.20000,26.83331,14.87882
32.30000,26.91675,15.14073
32.40000,26.99994,14.99559
32.50000,27.08331,15.08237
32.60000,27.16674,15.09849
32.70000,27.24993,15.15836
32.80000,27.33325,15.06012
32.90000,27.41668,15.04076
33.00000,27.49987,14.98971
33.10000,27.58337,15.13362
33.20000,27.66675,15.36392
33.30000,27.74999,15.31041
33.40000,27.83337,15.07384
33.50000,27.91675,15.02092
33.60000,27.99987,15.29135
33.70000,28.08325,15.18502
33.80000,28.16675,15.28724
33.90000,28.24993,15.30840
34.00000,28.33331,15.21467
34.10000,28.41681,15.52910
34.20000,28.49993,15.19786
34.30000,28.58331,15.36710
34.40000,28.66675,15.32830
34.50000,28.74993,15.40753
34.60000,28.83331,15.42497
34.70000,28.91675,15.42326
34.80000,28.99993,15.33952
34.90000,29.08331,15.42899
35.00000,29.16681,15.49240
35.10000,29.24987,15.40557
35.20000,29.33331,15.48250
35.30000,29.41675,15.59461
35.40000,29.50000,15.67580
35.50000,29.58331,15.50391
35.60000,29.66675,15.68404
35.70000,29.74994,15.55546
35.80000,29.83331,15.62401
35.90000,29.91668,15.70653
36.00000,29.99993,15.63562
36.10000,30.08325,15.53988
36.20000,30.16675,15.88778
36.30000,30.24993,15.80849
36.40000,30.33337,15.86759
36.50000,30.41675,15.67943
36.60000,30.49993,15.64155
36.70000,30.58331,15.84779
36.80000,30.66675,15.73504
36.90000,30.74993,15.88533
37.00000,30.83331,15.90120
37.10000,30.91675,15.67561
37.20000,30.99987,16.08765
37.30000,31.08337,15.92428
37.40000,31.16668,15.79424
37.50000,31.24987,16.07937
37.60000,31.33331,15.97774
37.70000,31.41674,15.92036
37.80000,31.49993,15.93281
37.90000,31.58337,16.08329
38.00000,31.66668,16.00018
38.10000,31.74993,15.97402
38.20000,31.83331,16.15762
38.30000,31.91675,16.47695
38.40000,31.99993,16.16360
38.50000,32.08337,15.95892
38.60000,32.16681,16.36009
38.70000,32.24993,16.33088
38.80000,32.33337,16.25679
38.90000,32.41668,16.32108
39.00000,32.49987,16.36464
39.10000,32.58331,16.14630
39.20000,32.66674,16.28227
39.30000,32.74987,16.49405
39.40000,32.83331,16.31104
39.50000,32.91674,16.21456
39.60000,33.00000,16.21725
39.70000,33.08337,16.20642
39.80000,33.16681,16.51267
39.90000,33.24993,16.69010
40.00000,33.33325,16.52948
40.10000,33.41675,16.65908
40.20000,33.49987,16.50419
40.30000,33.58331,16.46039
40.40000,33.66675,16.50272
40.50000,33.74993,16.36636
40.60000,33.83337,16.55481
40.70000,33.91681,16.42477
40.80000,33.99993,16.65801
40.90000,34.08337,16.52825
41.00000,34.16675,16.38488
41.10000,34.24993,16.60744
41.20000,34.33324,16.73366
41.30000,34.41668,16.65913
41.40000,34.49993,16.64678
41.50000,34.58331,16.82593
41.60000,34.66674,16.58857
41.70000,34.74993,16.73307
41.80000,34.83331,16.78658
41.90000,34.91674,16.52987
42.00000,34.99993,16.70921
42.10000,35.08331,16.71396
42.20000,35.16675,16.71279
42.30000,35.24993,16.82098
42.40000,35.33331,17.02198
42.50000,35.41674,16.94563
42.60000,35.49993,16.88306
42.70000,35.58331,16.90683
42.80000,35.66675,17.03310
42.90000,35.74993,16.89673
43.00000,35.83343,17.05789
43.10000,35.91675,16.94804
43.20000,35.99987,17.04368
43.30000,36.08331,17.01531
43.40000,36.16668,17.15663
43.50000,36.24987,17.12292
43.60000,36.33331,17.07000
43.70000,36.41674,16.95558
43.80000,36.49993,17.11312
43.90000,36.58337,17.09655
44.00000,36.66674,17.25232
44.10000,36.74993,17.19103
44.20000,36.83331,17.08945
44.30000,36.91674,17.10797
44.40000,36.99993,17.24052
44.50000,37.08331,17.41961
44.60000,37.16674,17.24169
44.70000,37.24987,17.31436
44.80000,37.33331,17.56646
44.90000,37.41675,17.35689
45.00000,37.49987,17.17172
45.10000,37.58331,17.74521
45.20000,37.66681,17.52932
45.30000,37.74999,17.58802
45.40000,37.83331,17.51246
45.50000,37.91675,17.55240
45.60000,37.99987,17.51550
45.70000,38.08331,17.37125
45.80000,38.16674,17.34101
45.90000,38.24987,17.60106
46.00000,38.33337,17.75345
46.10000,38.41681,17.45469
46.20000,38.49993,17.55754
46.30000,38.58331,17.54294
46.40000,38.66674,17.48821
46.50000,38.74993,17.68210
46.60000,38.83325,17.69607
46.70000,38.91675,17.77275
46.80000,38.99993,17.53010
46.90000,39.08331,17.78711
47.00000,39.16674,17.61414
47.10000,39.24993,17.91691
47.20000,39.33337,17.90020
47.30000,39.41681,17.71410
47.40000,39.49993,17.82969
47.50000,39.58337,17.82601
47.60000,39.66675,17.85958
47.70000,39.74993,17.85978
47.80000,39.83324,17.98419
47.90000,39.91674,17.97463
48.00000,39.99987,18.13525
48.10000,40.08331,17.87011
48.20000,40.16674,18.10517
48.30000,40.24993,18.14442
48.40000,40.33337,18.07954
48.50000,40.41674,18.00339
48.60000,40.49993,18.23178
48.70000,40.58330,18.01726
48.80000,40.66668,18.01574
48.90000,40.74981,18.33566
49.00000,40.83330,17.93695
49.10000,40.91674,17.97688
49.20000,40.99993,18.19439
49.30000,41.08331,18.16794
49.40000,41.16674,18.45713
49.50000,41.24993,18.46140
49.60000,41.33331,18.09404
49.70000,41.41674,18.39196
49.80000,41.49993,18.22399
49.90000,41.58331,18.38677
50.00000,41.66668,18.28166
50.10000,41.74987,18.28113
50.20000,41.83318,18.37408
50.30000,41.91674,18.41504
50.40000,41.99993,18.38839
50.50000,42.08337,18.56787
50.60000,42.16681,18.54259
50.70000,42.24999,18.49873
50.80000,42.33331,18.47031
50.90000,42.41668,18.58610
51.00000,42.49987,18.77896
51.10000,42.58330,18.71860
51.20000,42.66674,18.64735
51.30000,42.74993,18.72918
51.40000,42.83343,18.64451
51.50000,42.91681,18.60462
51.60000,42.99993,18.85403
51.70000,43.08330,18.68077
51.80000,43.16675,18.75339
51.90000,43.24981,18.73981
52.00000,43.33331,18.73290
52.10000,43.41675,18.74045
52.20000,43.49993,18.75917
52.30000,43.58331,18.87138
52.40000,43.66674,18.95041
52.50000,43.74993,18.76466
52.60000,43.83337,18.82684
52.70000,43.91674,18.96987
52.80000,43.99993,19.03146
52.90000,44.08337,19.10917
53.00000,44.16674,18.90994
53.10000,44.24987,19.13147
53.20000,44.33331,19.00711
53.30000,44.41674,18.89509
53.40000,44.49993,19.11981
53.50000,44.58331,19.25196
53.60000,44.66681,19.18365
53.70000,44.74993,19.15009
53.80000,44.83331,19.22912
53.90000,44.91674,19.25044
54.00000,44.99987,19.28621
54.10000,45.08330,19.21991
54.20000,45.16668,19.29748
54.30000,45.24987,19.24858
54.40000,45.33330,19.25456
54.50000,45.41674,19.34261
54.60000,45.49987,19.37534
54.70000,45.58331,19.33864
54.80000,45.66674,19.45134
54.90000,45.74993,19.42057
55.00000,45.83331,19.43252
55.10000,45.91674,19.49338
55.20000,45.99987,19.45987
55.30000,46.08330,19.47535
55.40000,46.16668,19.47128
55.50000,46.24987,19.60393
55.60000,46.33337,19.59427
55.70000,46.41674,19.65062
55.80000,46.49993,19.61176
55.90000,46.58331,19.67796
56.00000,46.66674,19.72206
56.10000,46.74986,19.76788
56.20000,46.83331,19.74720
56.30000,46.91674,19.79865
56.40000,46.99993,19.55914
56.50000,47.08324,19.63823
56.60000,47.16674,19.83957
56.70000,47.24993,19.51612
56.80000,47.33331,19.93507
56.90000,47.41674,19.76636
57.00000,47.49993,19.85711
57.10000,47.58331,19.86583
57.20000,47.66674,20.01396
57.30000,47.74993,19.90993
57.40000,47.83330,19.98583
57.50000,47.91674,20.19369
57.60000,47.99987,20.10818
57.70000,48.08336,19.88259
57.80000,48.16674,19.94325
57.90000,48.24993,20.18011
58.00000,48.33330,20.02140
58.10000,48.41674,19.95452
58.20000,48.49993,20.28110
58.30000,48.58330,20.14978
58.40000,48.66668,20.23225
58.50000,48.74993,20.25582
58.60000,48.83330,20.08158
58.70000,48.91681,20.39248
58.80000,48.99993,20.28826
58.90000,49.08337,20.27375
59.00000,49.16674,20.20853
59.10000,49.24993,20.49195
59.20000,49.33331,20.45260
59.30000,49.41668,20.49332
59.40000,49.49993,20.23838
59.50000,49.58331,20.55041
59.60000,49.66674,20.64698
59.70000,49.74987,20.45476
59.80000,49.83337,20.46833
59.90000,49.91674,20.60930
60.00000,49.99999,20.55374
60.10000,50.08331,20.55668
60.20000,50.16674,20.56275
60.30000,50.24993,20.50435
60.40000,50.33324,20.57133
60.50000,50.41674,20.75537
60.60000,50.49987,20.74146
60.70000,50.58330,20.56736
60.80000,50.66674,20.58760
60.90000,50.74993,20.84191
61.00000,50.83337,20.81143
61.10000,50.91674,20.77311
61.20000,50.99993,20.82652
61.30000,51.08337,21.01581
61.40000,51.16674,20.90566
61.50000,51.24987,20.87866
61.60000,51.33331,21.07265
61.70000,51.41674,20.99028
61.80000,51.49987,21.01654
61.90000,51.58330,20.78801
62.00000,51.66674,21.09421
62.10000,51.74993,21.07975
62.20000,51.83330,21.06241
62.30000,51.91674,21.14100
62.40000,51.99999,21.04251
62.50000,52.08330,21.29898
62.60000,52.16674,21.11910
62.70000,52.24993,21.10283
62.80000,52.33324,21.23376
62.90000,52.41674,21.24934
63.00000,52.49986,21.16354
63.10000,52.58331,21.39570
63.20000,52.66680,21.54643
63.30000,52.74993,21.21117
63.40000,52.83337,21.20215
63.50000,52.91674,21.31436
63.60000,52.99993,21.47004
63.70000,53.08324,21.32441
63.80000,53.16674,21.45730
63.90000,53.24987,21.46626
64.00000,53.33337,21.55598
64.10001,53.41674,21.46558
64.20000,53.49987,21.65481
64.30000,53.58336,21.56211
64.40000,53.66674,21.58102
64.50000,53.74993,21.63605
64.60001,53.83330,21.81289
64.70000,53.91674,21.72106
64.80000,53.99993,21.56044
64.90000,54.08330,21.72317
65.00000,54.16675,21.61875
65.10001,54.24987,21.58553
65.20000,54.33330,21.80005
65.30000,54.41674,21.67912
65.40000,54.49993,21.99022
65.50000,54.58337,21.65486
65.60001,54.66674,21.88418
65.70001,54.74993,21.80083
65.80000,54.83331,21.91054
65.90000,54.91674,21.79510
66.00000,54.99987,21.80426
66.10001,55.08324,22.23772
66.20001,55.16680,21.99649
66.30000,55.24993,21.83092
66.40000,55.33330,21.96787
66.50000,55.41680,22.06867
66.60001,55.49987,22.37937
66.70001,55.58331,22.05294
66.80000,55.66674,22.18960
66.90000,55.74987,22.22189
67.00000,55.83331,22.24129
67.10001,55.91674,22.15907
67.20001,55.99987,22.21772
67.30000,56.08330,22.40760
67.40000,56.16674,22.23252
67.50000,56.24993,22.47027
67.60001,56.33337,22.50065
67.70001,56.41680,22.04426
67.80000,56.49993,22.18725
67.90000,56.58330,22.39946
68.00000,56.66662,22.52735
68.10001,56.74987,22.43812
68.20001,56.83331,22.43778
68.30000,56.91668,22.38599
68.40000,56.99993,22.50065
68.50000,57.08330,22.52005
68.60001,57.16681,22.64642
68.70001,57.24993,22.54730
68.80000,57.33330,22.58826
68.90000,57.41674,22.60997
69.00000,57.49993,22.79646
69.10001,57.58330,22.75520
69.20001,57.66674,22.74339
69.30000,57.74993,22.96002
69.40000,57.83331,22.67788
69.50000,57.91674,22.86192
69.60001,57.99986,22.88775
69.70001,58.08337,22.83483
69.80000,58.16668,23.01363
69.90000,58.24987,22.96223
70.00000,58.33331,23.06763
70.10001,58.41680,23.08247
70.20001,58.49993,22.99403
70.30000,58.58331,23.06474
70.40000,58.66668,23.08203
70.50000,58.74987,23.05753
70.60001,58.83330,23.14799
70.70001,58.91674,22.96943
70.80000,58.99999,23.11285
70.90000,59.08343,23.19552
71.00000,59.16674,23.12172
71.10001,59.24993,23.29087
71.20001,59.33330,23.18214
71.30000,59.41662,23.11844
71.40000,59.49987,23.27921
71.50000,59.58330,23.44728
71.60001,59.66680,23.37461
71.70001,59.74993,23.44091
71.80000,59.83330,23.51735
71.90000,59.91674,23.33708
72.00000,59.99993,23.31370
72.10001,60.08331,23.42332
72.20001,60.16674,23.47364
72.30000,60.24993,23.40239
72.40000,60.33331,23.50564
72.50000,60.41674,23.42518
72.60001,60.49987,23.56208
72.70001,60.58331,23.56101
72.80000,60.66674,23.47261
72.90000,60.74993,23.40866
73.00000,60.83337,23.70825
73.10001,60.91680,23.61790
73.20001,60.99993,23.67562
73.30000,61.08325,23.69894
73.40000,61.16668,23.52529
73.50000,61.24993,23.76475
73.60001,61.33324,23.92802
73.70001,61.41668,23.82933
73.80000,61.49993,23.71501
73.90000,61.58337,23.92753
74.00000,61.66680,23.79474
74.10001,61.74987,24.07374
74.20001,61.83330,23.90547
74.30000,61.91674,23.95178
74.40000,61.99993,23.93894
74.50000,62.08324,23.76440
74.60001,62.16681,24.06664
74.70001,62.24987,23.96952
74.80000,62.33331,24.09329
74.90000,62.41674,24.11446
75.00000,62.49993,24.12793
