Time,Extension,Load
(sec),(mm),(N)
0.00000,0.00000,0.33767
0.10000,0.07587,0.85378
0.20000,0.16462,1.25896
0.30000,0.24925,1.60020
0.40000,0.33306,2.05864
0.50000,0.41669,2.12533
0.60000,0.49994,2.29012
0.70000,0.58331,2.55658
0.80000,0.66675,2.86547
0.90000,0.74994,2.84043
1.00000,0.83337,2.99714
1.10000,0.91675,3.39413
1.20000,0.99994,3.50139
1.30000,1.08337,3.74919
1.40000,1.16675,3.70901
1.50000,1.24994,4.15520
1.60000,1.33331,4.01354
1.70000,1.41669,4.32978
1.80000,1.49987,4.43406
1.90000,1.58331,4.63623
2.00000,1.66662,4.98981
2.10000,1.75000,4.80205
2.20000,1.83337,5.11315
2.30000,1.91675,5.16651
2.40000,2.00000,5.46046
2.50000,2.08337,5.37770
2.60000,2.16656,5.62446
2.70000,2.24987,5.69433
2.80000,2.33337,5.80938
2.90000,2.41675,5.83467
3.00000,2.49994,5.95511
3.10000,2.58337,6.10353
3.20000,2.66675,6.12195
3.30000,2.74994,6.51317
3.40000,2.83331,6.41243
3.50000,2.91675,6.57275
3.60000,2.99994,6.77267
3.70000,3.08331,6.84451
3.80000,3.16675,6.91409
3.90000,3.24987,6.91237
4.00000,3.33331,7.07951
4.10000,3.41669,7.05530
4.20000,3.49994,7.19549
4.30000,3.58337,7.22514
4.40000,3.66681,7.34646
4.50000,3.74994,7.50532
4.60000,3.83337,7.39198
4.70000,3.91675,7.62576
4.80000,3.99994,7.81906
4.90000,4.08331,7.84464
5.00000,4.16669,7.91608
5.10000,4.24994,8.03388
5.20000,4.33337,8.05093
5.30000,4.41675,8.35003
5.40000,4.49994,8.22081
5.50000,4.58337,8.41083
5.60000,4.66675,8.46645
5.70000,4.75000,8.41368
5.80000,4.83325,8.59292
5.90000,4.91675,8.70145
6.00000,4.99987,8.68597
6.10000,5.08331,8.74237
6.20000,5.16669,8.74105
6.30000,5.24994,8.81082
6.40000,5.33331,9.00256
6.50000,5.41675,9.09223
6.60000,5.50000,9.04029
6.70000,5.58337,9.17440
6.80000,5.66675,9.19792
6.90000,5.74994,9.29602
7.00000,5.83331,9.36829
7.10000,5.91669,9.37231
7.20000,5.99994,9.50819
7.30000,6.08331,9.44003
7.40000,6.16675,9.49505
7.50000,6.24994,9.77470
7.60000,6.33337,9.71413
7.70000,6.41669,9.76083
7.80000,6.49994,9.65176
7.90000,6.58331,9.87735
8.00000,6.66675,10.08433
8.10000,6.74994,10.11765
8.20000,6.83337,10.17458
8.30000,6.91669,10.05654
8.40000,6.99987,9.94071
8.50000,7.08337,10.01004
8.60000,7.16675,10.41522
8.70000,7.24994,10.16915
8.80000,7.33337,10.41022
8.90000,7.41675,10.36137
9.00000,7.49994,10.33771
9.10000,7.58331,10.66718
9.20000,7.66662,10.66311
9.30000,7.74994,10.74112
9.40000,7.83325,10.77420
9.50000,7.91675,10.84554
9.60000,7.99987,10.52366
9.70000,8.08337,10.72069
9.80000,8.16681,10.75714
9.90000,8.25000,10.97549
10.00000,8.33337,11.04399
10.10000,8.41675,10.98622
10.20000,8.49981,10.93398
10.30000,8.58325,11.12165
10.40000,8.66669,11.05634
10.50000,8.74994,11.12200
10.60000,8.83331,11.27659
10.70000,8.91675,11.21348
10.80000,8.99987,11.36631
10.90000,9.08337,11.47778
11.00000,9.16675,11.56486
11.10000,9.24994,11.22725
11.20000,9.33337,11.54732
11.30000,9.41675,11.73812
11.40000,9.49994,11.61244
11.50000,9.58325,11.69324
11.60000,9.66669,11.91565
11.70000,9.74987,11.65673
11.80000,9.83337,11.87792
11.90000,9.91675,11.82083
12.00000,10.00000,11.74160
12.10000,10.08337,12.00316
12.20000,10.16675,11.96597
12.30000,10.24994,11.90452
12.40000,10.33337,11.94485
12.50000,10.41669,12.03045
12.60000,10.49994,12.02702
12.70000,10.58331,12.15232
12.80000,10.66669,12.32034
12.90000,10.74994,12.20083
13.00000,10.83337,12.25139
13.10000,10.91675,12.27251
13.20000,10.99994,12.48321
13.30000,11.08337,12.33082
13.40000,11.16669,12.41236
13.50000,11.24987,12.41353
13.60000,11.33331,12.59033
13.70000,11.41669,12.67397
13.80000,11.49987,12.50791
13.90000,11.58337,12.65652
14.00000,11.66675,12.55539
14.10000,11.74994,12.67715
14.20000,11.83337,12.70356
14.30000,11.91675,12.83611
14.40000,11.99987,12.63673
14.50000,12.08331,12.75756
14.60000,12.16669,12.87712
14.70000,12.24987,12.93896
14.80000,12.33337,13.01682
14.90000,12.41675,13.10007
15.00000,12.50000,12.84753
15.10000,12.58337,13.08552
15.20000,12.66675,12.93994
15.30000,12.74994,13.25873
15.40000,12.83331,13.05533
15.50000,12.91675,13.14094
15.60000,12.99987,13.31141
15.70000,13.08337,13.32934
15.80000,13.16675,13.31317
15.90000,13.24994,13.35551
16.00000,13.33331,12.99433
16.10000,13.41675,13.27451
16.20000,13.49994,13.35399
16.30000,13.58337,13.55935
16.40000,13.66681,13.44699
16.50000,13.74987,13.48648
16.60000,13.83337,13.39265
16.70000,13.91675,13.43425
16.80000,13.99987,13.57851
16.90000,14.08331,13.54308
17.00000,14.16669,13.68831
17.10000,14.25000,13.65656
17.20000,14.33331,13.50966
17.30000,14.41675,13.81562
17.40000,14.49994,13.93243
17.50000,14.58331,13.80337
17.60000,14.66669,13.52480
17.70000,14.74994,13.78205
17.80000,14.83331,13.91660
17.90000,14.91669,13.79611
18.00000,14.99994,13.78568
18.10000,15.08331,13.70507
18.20000,15.16675,13.70929
18.30000,15.24994,13.88074
18.40000,15.33331,13.82228
18.50000,15.41675,14.10339
18.60000,15.50000,13.81091
18.70000,15.58331,13.96575
18.80000,15.66675,14.00520
18.90000,15.74993,14.00970
19.00000,15.83337,14.02494
19.10000,15.91668,14.03445
19.20000,15.99994,14.10256
19.30000,16.08337,14.32321
19.40000,16.16675,14.05140
19.50000,16.25000,14.28386
19.60000,16.33337,14.23069
19.70000,16.41668,14.19483
19.80000,16.49987,14.01431
19.90000,16.58331,14.39078
20.00000,16.66681,14.16332
20.10000,16.74994,14.42909
20.20000,16.83337,14.34663
20.30000,16.91675,14.34334
20.40000,16.99987,14.19968
20.50000,17.08331,14.40881
20.60000,17.16669,14.54375
20.70000,17.24993,14.39935
20.80000,17.33337,14.36628
20.90000,17.41681,14.31213
21.00000,17.49994,14.46829
21.10000,17.58331,14.59270
21.20000,17.66675,14.33511
21.30000,17.74987,14.52749
21.40000,17.83337,14.54567
21.50000,17.91675,14.53557
21.60000,17.99993,14.53572
21.70000,18.08331,14.44178
21.80000,18.16675,14.67414
21.90000,18.24987,14.63828
22.00000,18.33331,14.65440
22.10000,18.41668,14.71814
22.20000,18.49987,14.54860
22.30000,18.58337,14.58633
22.40000,18.66681,14.68144
22.50000,18.74994,14.72981
22.60000,18.83337,14.84701
22.70000,18.91675,14.81600
22.80000,18.99993,14.82555
22.90000,19.08331,14.84917
23.00000,19.16662,14.91272
23.10000,19.24987,15.07094
23.20000,19.33331,14.84471
23.30000,19.41675,15.04958
23.40000,19.50000,14.89631
23.50000,19.58337,14.75720
23.60000,19.66675,14.86078
23.70000,19.74993,14.95775
23.80000,19.83337,15.06746
23.90000,19.91681,15.11759
24.00000,19.99993,14.92590
24.10000,20.08331,15.14738
24.20000,20.16675,14.90086
24.30000,20.24994,15.01366
24.40000,20.33331,15.12994
24.50000,20.41668,15.03081
24.60000,20.49993,15.27841
24.70000,20.58337,15.14743
24.80000,20.66675,15.34245
24.90000,20.74993,15.26047
25.00000,20.83337,15.28096
25.10000,20.91669,15.33917
25.20000,20.99993,15.35343
25.30000,21.08337,15.42360
25.40000,21.16675,15.29262
25.50000,21.24987,15.22911
25.60000,21.33331,15.23215
25.70000,21.41675,15.36700
25.80000,21.49994,15.33775
25.90000,21.58337,15.27292
26.00000,21.66675,15.47328
26.10000,21.74993,15.27659
26.20000,21.83337,15.38062
26.30000,21.91668,15.47397
26.40000,21.99993,15.62846
26.50000,22.08331,15.49293
26.60000,22.16668,15.50386
26.70000,22.24993,15.25602
26.80000,22.33331,15.68236
26.90000,22.41675,15.72798
27.00000,22.49993,15.75817
27.10000,22.58337,15.57295
27.20000,22.66675,15.55452
27.30000,22.74993,15.53590
27.40000,22.83331,15.75964
27.50000,22.91662,15.66747
27.60000,22.99994,15.45912
27.70000,23.08331,15.85685
27.80000,23.16675,15.93966
27.90000,23.24993,15.71044
28.00000,23.33331,15.65326
28.10000,23.41675,15.78046
28.20000,23.49993,16.05368
28.30000,23.58337,16.01537
28.40000,23.66675,15.93692
28.50000,23.74993,15.91781
28.60000,23.83331,15.80099
28.70000,23.91668,16.08230
28.80000,23.99987,15.77693
28.90000,24.08331,15.84490
29.00000,24.16675,15.84916
29.10000,24.25000,16.05672
29.20000,24.33343,15.85793
29.30000,24.41674,16.13297
29.40000,24.49993,16.04011
29.50000,24.58331,16.16472
29.60000,24.66668,15.98484
29.70000,24.74987,15.89355
29.80000,24.83331,16.08921
29.90000,24.91675,16.01777
30.00000,24.99999,16.28139
30.10000,25.08337,16.13747
30.20000,25.16675,16.22842
30.30000,25.25000,16.13395
30.40000,25.33331,16.17334
30.50000,25.41675,16.26370
30.60000,25.49981,16.33406
30.70000,25.58324,16.33200
30.80000,25.66668,16.31392
30.90000,25.74987,15.98822
31.00000,25.83337,16.29614
31.10000,25.91675,16.26007
31.20000,25.99993,16.26639
31.30000,26.08337,16.44044
31.40000,26.16675,16.42892
31.50000,26.24993,16.42505
31.60000,26.33331,16.37454
31.70000,26.41669,16.41790
31.80000,26.49987,16.59038
31.90000,26.58331,16.30290
32.00000,26.66668,16.50458
32.10000,26.74993,16.37248
32.20000,26.83337,16.35616
32.30000,26.91675,16.54765
32.40000,26.99994,16.47660
32.50000,27.08331,16.55358
32.60000,27.16674,16.36302
32.70000,27.24993,16.61953
32.80000,27.33337,16.34460
32.90000,27.41675,16.74243
33.00000,27.49993,16.55765
33.10000,27.58331,16.63884
33.20000,27.66668,16.48228
33.30000,27.74993,16.54868
33.40000,27.83337,16.44534
33.50000,27.91675,16.70200
33.60000,28.00000,16.72332
33.70000,28.08337,16.60327
33.80000,28.16675,16.67436
33.90000,28.24987,16.56245
34.00000,28.33331,16.78020
34.10000,28.41668,16.79515
34.20000,28.49987,16.66667
34.30000,28.58337,16.77957
34.40000,28.66675,16.89192
34.50000,28.74993,17.03084
34.60000,28.83331,16.64516
34.70000,28.91668,16.86071
34.80000,28.99987,16.76575
34.90000,29.08331,16.85297
35.00000,29.16669,16.92529
35.10000,29.24993,16.92779
35.20000,29.33337,16.96645
35.30000,29.41681,16.72077
35.40000,29.49993,16.82225
35.50000,29.58337,16.94769
35.60000,29.66675,17.00261
35.70000,29.75000,17.21655
35.80000,29.83337,17.11855
35.90000,29.91668,16.98787
36.00000,29.99993,17.13599
36.10000,30.08331,17.14383
36.20000,30.16675,17.16343
36.30000,30.24987,17.14050
36.40000,30.33337,17.13300
36.50000,30.41675,17.21498
36.60000,30.49993,17.10120
36.70000,30.58337,17.15961
36.80000,30.66681,17.26868
36.90000,30.74993,17.30098
37.00000,30.83331,17.31411
37.10000,30.91668,17.27520
37.20000,30.99993,17.39706
37.30000,31.08331,17.27922
37.40000,31.16675,17.27339
37.50000,31.24993,17.17509
37.60000,31.33337,17.43161
37.70000,31.41674,17.35679
37.80000,31.49993,17.32949
37.90000,31.58331,17.54019
38.00000,31.66674,17.45238
38.10000,31.74993,17.32474
38.20000,31.83331,17.40245
38.30000,31.91675,17.49707
38.40000,31.99993,17.54646
38.50000,32.08331,17.56361
38.60000,32.16675,17.40662
38.70000,32.24999,17.75084
38.80000,32.33337,17.50143
38.90000,32.41675,17.71939
39.00000,32.49993,17.57008
39.10000,32.58331,17.69513
39.20000,32.66668,17.56827
39.30000,32.74993,17.73551
39.40000,32.83324,17.47105
39.50000,32.91674,17.66142
39.60000,33.00000,17.70400
39.70000,33.08337,17.77887
39.80000,33.16674,17.58664
39.90000,33.24993,17.75863
40.00000,33.33331,17.72282
40.10000,33.41668,17.71262
40.20000,33.49993,17.50212
40.30000,33.58337,17.86050
40.40000,33.66675,17.61428
40.50000,33.74993,17.72580
40.60000,33.83337,17.66103
40.70000,33.91668,17.84791
40.80000,33.99981,18.04910
40.90000,34.08331,17.97526
41.00000,34.16675,17.82028
41.10000,34.24993,18.00388
41.20000,34.33337,18.02411
41.30000,34.41668,17.95547
41.40000,34.49987,17.98614
41.50000,34.58331,17.91828
41.60000,34.66668,17.99178
41.70000,34.74993,17.97056
41.80000,34.83337,17.89431
41.90000,34.91681,18.03249
42.00000,34.99993,17.97757
42.10000,35.08337,18.17743
42.20000,35.16668,18.23888
42.30000,35.24987,18.13133
42.40000,35.33331,17.96120
42.50000,35.41674,18.12368
42.60000,35.49987,18.26779
42.70000,35.58331,17.86491
42.80000,35.66675,18.32448
42.90000,35.75000,18.03151
43.00000,35.83337,18.30640
43.10000,35.91675,18.39514
43.20000,35.99993,18.24256
43.30000,36.08324,18.15298
43.40000,36.16675,18.22369
43.50000,36.24987,18.27460
43.60000,36.33337,18.23893
43.70000,36.41674,18.57517
43.80000,36.49993,18.23530
43.90000,36.58337,18.40504
44.00000,36.66674,18.44674
44.10000,36.74993,18.52504
44.20000,36.83337,18.30444
44.30000,36.91674,18.48476
44.40000,36.99993,18.42714
44.50000,37.08331,18.42150
44.60000,37.16668,18.52529
44.70000,37.24987,18.43630
44.80000,37.33331,18.54587
44.90000,37.41675,18.53092
45.00000,37.49993,18.65234
45.10000,37.58331,18.57061
45.20000,37.66675,18.55312
45.30000,37.74993,18.45840
45.40000,37.83331,18.74378
45.50000,37.91675,18.70036
45.60000,37.99993,18.67003
45.70000,38.08331,18.56189
45.80000,38.16668,18.67013
45.90000,38.24993,18.72511
46.00000,38.33331,18.62074
46.10000,38.41674,18.86461
46.20000,38.49993,18.89239
46.30000,38.58337,18.60246
46.40000,38.66674,18.83712
46.50000,38.74987,18.74079
46.60000,38.83331,18.78881
46.70000,38.91668,18.93355
46.80000,38.99987,18.99049
46.90000,39.08331,18.62642
47.00000,39.16668,19.03116
47.10000,39.24993,18.87799
47.20000,39.33337,18.89274
47.30000,39.41674,18.84898
47.40000,39.49999,19.06110
47.50000,39.58337,18.96457
47.60000,39.66675,18.82463
47.70000,39.74993,19.00764
47.80000,39.83330,19.01082
47.90000,39.91674,19.03003
48.00000,39.99993,19.14357
48.10000,40.08331,19.01489
48.20000,40.16674,19.13572
48.30000,40.24993,18.94085
48.40000,40.33331,19.09442
48.50000,40.41674,19.30277
48.60000,40.49993,19.12509
48.70000,40.58337,19.20050
48.80000,40.66675,19.07928
48.90000,40.74987,19.29429
49.00000,40.83325,19.32531
49.10000,40.91674,19.35309
49.20000,40.99987,19.22780
49.30000,41.08337,19.29502
49.40000,41.16681,19.16635
49.50000,41.24993,19.34892
49.60000,41.33331,19.42742
49.70000,41.41674,19.46491
49.80000,41.49993,19.41258
49.90000,41.58324,19.42438
50.00000,41.66674,19.35172
50.10000,41.74993,19.46128
50.20000,41.83331,19.29860
50.30000,41.91674,19.26587
50.40000,41.99993,19.46324
50.50000,42.08343,19.59917
50.60000,42.16681,19.56384
50.70000,42.24993,19.39048
50.80000,42.33337,19.51356
50.90000,42.41668,19.66977
51.00000,42.49987,19.44658
51.10000,42.58330,19.50817
51.20000,42.66668,19.58829
51.30000,42.74987,19.70295
51.40000,42.83337,19.54541
51.50000,42.91675,19.84059
51.60000,42.99993,19.66566
51.70000,43.08337,19.58373
51.80000,43.16675,19.76180
51.90000,43.24993,19.82731
52.00000,43.33337,19.69447
52.10000,43.41668,19.93624
52.20000,43.49987,19.79183
52.30000,43.58331,19.70447
52.40000,43.66674,19.85289
52.50000,43.74993,19.92653
52.60000,43.83331,19.71049
52.70000,43.91674,19.92497
52.80000,43.99993,19.69550
52.90000,44.08337,19.77125
53.00000,44.16674,20.09798
53.10000,44.24993,20.11430
53.20000,44.33337,19.79115
53.30000,44.41674,19.79428
53.40000,44.49987,19.98602
53.50000,44.58325,19.91370
53.60000,44.66674,19.81124
53.70000,44.74993,20.08691
53.80000,44.83337,20.05090
53.90000,44.91681,20.14365
54.00000,44.99999,20.15674
54.10000,45.08330,19.94780
54.20000,45.16668,19.99959
54.30000,45.24987,20.13160
54.40000,45.33337,20.36111
54.50000,45.41668,20.18143
54.60000,45.49993,20.35136
54.70000,45.58337,20.29815
54.80000,45.66681,20.16227
54.90000,45.74993,20.16899
55.00000,45.83331,20.31226
55.10000,45.91668,20.26145
55.20000,45.99987,20.20760
55.30000,46.08330,20.36258
55.40000,46.16668,20.46504
55.50000,46.24993,20.15821
55.60000,46.33330,20.48459
55.70000,46.41674,20.33181
55.80000,46.49993,20.74365
55.90000,46.58337,20.43427
56.00000,46.66674,20.22416
56.10000,46.74993,20.55790
56.20000,46.83337,20.42962
56.30000,46.91674,20.45857
56.40000,46.99986,20.41830
56.50000,47.08331,20.55897
56.60000,47.16674,20.73567
56.70000,47.24993,20.45289
56.80000,47.33331,20.38184
56.90000,47.41680,20.54628
57.00000,47.49999,20.57720
57.10000,47.58331,20.60028
57.20000,47.66674,20.70230
57.30000,47.74987,20.59587
57.40000,47.83337,20.69867
57.50000,47.91668,20.78055
57.60000,47.99993,20.52977
57.70000,48.08330,20.89933
57.80000,48.16674,20.70950
57.90000,48.24987,20.74635
58.00000,48.33330,20.98488
58.10000,48.41674,20.57627
58.20000,48.49987,20.85018
58.30000,48.58330,20.74307
58.40000,48.66675,20.97146
58.50000,48.74987,20.73758
58.60000,48.83330,21.07401
58.70000,48.91668,20.99341
58.80000,48.99987,20.94122
58.90000,49.08337,20.75179
59.00000,49.16674,20.78094
59.10000,49.24993,20.88669
59.20000,49.33331,20.82044
59.30000,49.41674,21.08352
59.40000,49.49987,20.96367
59.50000,49.58331,21.09841
59.60000,49.66668,20.99424
59.70000,49.74993,20.99547
59.80000,49.83330,20.96558
59.90000,49.91674,21.11983
60.00000,49.99999,21.02776
60.10000,50.08337,21.16971
60.20000,50.16674,21.25330
60.30000,50.24993,21.07984
60.40000,50.33331,21.15947
60.50000,50.41674,21.33180
60.60000,50.49993,21.35532
60.70000,50.58337,21.20754
60.80000,50.66674,21.30755
60.90000,50.74987,21.29319
61.00000,50.83337,21.14153
61.10000,50.91668,21.42681
61.20000,50.99987,21.25913
61.30000,51.08330,21.43813
61.40000,51.16674,21.34136
61.50000,51.24993,21.26629
61.60000,51.33336,21.32494
61.70000,51.41668,21.37953
61.80000,51.49987,21.48605
61.90000,51.58330,21.40055
62.00000,51.66674,21.46655
62.10000,51.74993,21.55774
62.20000,51.83337,21.44881
62.30000,51.91674,21.57528
62.40000,51.99993,21.50242
62.50000,52.08330,21.65084
62.60000,52.16668,21.89868
62.70000,52.24986,21.59170
62.80000,52.33331,21.77672
62.90000,52.41674,21.85522
63.00000,52.49986,21.67990
63.10000,52.58337,21.75942
63.20000,52.66674,21.62110
63.30000,52.74993,21.92137
63.40000,52.83337,21.64138
63.50000,52.91674,21.67568
63.60000,52.99993,21.77050
63.70000,53.08324,21.81146
63.80000,53.16674,21.71777
63.90000,53.24987,21.87183
64.00000,53.33330,21.99937
64.10001,53.41674,21.78005
64.20000,53.49987,22.20792
64.30000,53.58336,21.86595
64.40000,53.66674,22.00349
64.50000,53.74993,21.61125
64.60001,53.83337,21.95978
64.70000,53.91674,21.82405
64.80000,53.99987,21.89231
64.90000,54.08324,22.09419
65.00000,54.16675,22.03931
65.10001,54.24987,21.94881
65.20000,54.33330,22.11036
65.30000,54.41674,21.89162
65.40000,54.49993,22.06430
65.50000,54.58331,22.00535
65.60001,54.66674,22.18111
65.70001,54.75000,22.18842
65.80000,54.83337,22.27069
65.90000,54.91674,22.28490
66.00000,54.99993,22.21992
66.10001,55.08331,22.15255
66.20001,55.16674,22.31199
66.30000,55.24987,22.37418
66.40000,55.33330,22.38422
66.50000,55.41680,22.39774
66.60001,55.49993,22.47164
66.70001,55.58337,22.37819
66.80000,55.66674,22.28980
66.90000,55.74993,22.39559
67.00000,55.83331,22.29822
67.10001,55.91668,22.44125
67.20001,55.99987,22.49511
67.30000,56.08337,22.61726
67.40000,56.16674,22.59453
67.50000,56.24987,22.59301
67.60001,56.33337,22.56718
67.70001,56.41674,22.53328
67.80000,56.49987,22.76906
67.90000,56.58337,22.51260
68.00000,56.66674,22.61354
68.10001,56.74993,22.44165
68.20001,56.83331,22.65205
68.30000,56.91674,22.70022
68.40000,56.99987,22.85109
68.50000,57.08330,22.85031
68.60001,57.16674,22.88681
68.70001,57.24993,22.70786
68.80000,57.33337,22.89931
68.90000,57.41674,22.80709
69.00000,57.49993,22.94453
69.10001,57.58330,22.95267
69.20001,57.66674,22.79278
69.30000,57.74986,22.74961
69.40000,57.83331,22.96903
69.50000,57.91674,22.92283
69.60001,57.99993,22.99873
69.70001,58.08337,22.95453
69.80000,58.16680,23.04420
69.90000,58.24993,23.08565
70.00000,58.33331,22.96913
70.10001,58.41674,23.03631
70.20001,58.49987,22.73481
70.30000,58.58331,23.09785
70.40000,58.66674,23.18801
70.50000,58.74987,23.02117
70.60001,58.83330,23.31580
70.70001,58.91674,23.21139
70.80000,58.99993,23.32129
70.90000,59.08336,23.20384
71.00000,59.16681,23.40719
71.10001,59.24993,23.29175
71.20001,59.33330,23.23745
71.30000,59.41662,23.26244
71.40000,59.49981,23.23956
71.50000,59.58330,23.29831
71.60001,59.66668,23.25225
71.70001,59.74993,23.15749
71.80000,59.83337,23.22908
71.90000,59.91681,23.31674
72.00000,59.99999,23.37039
72.10001,60.08337,23.63631
72.20001,60.16674,23.52582
72.30000,60.24993,23.37456
72.40000,60.33331,23.53596
72.50000,60.41668,23.49162
72.60001,60.49993,23.65528
72.70001,60.58331,23.58168
72.80000,60.66674,23.66258
72.90000,60.74993,23.59755
73.00000,60.83337,23.59133
73.10001,60.91668,23.48167
73.20001,60.99987,23.96148
73.30000,61.08337,23.49519
73.40000,61.16681,23.74548
73.50000,61.24993,23.67581
73.60001,61.33331,23.74769
73.70001,61.41668,23.61568
73.80000,61.49987,23.74156
73.90000,61.58330,23.76254
74.00000,61.66674,23.64126
74.10001,61.74993,23.77645
74.20001,61.83337,23.91532
74.30000,61.91680,23.72951
74.40000,61.99993,23.89817
74.50000,62.08330,23.82369
74.60001,62.16668,24.00528
74.70001,62.24987,23.75670
74.80000,62.33336,23.91934
74.90000,62.41674,23.98054
