Time,Extension,Load,
(sec),(mm),(N),(kgf)
0,0,-0.363630582,-0.03708
0.02,0.01156,-0.279489525,-0.0285
0.04,0.068,0.10002783,0.0102
0.06,0.16512,0.545838139,0.05566
0.08,0.27775,1.11432964,0.11363
0.1,0.38575,1.75735168,0.1792
0.12,0.48262,2.259648293,0.23042
0.14,0.57075,2.5500232,0.26003
0.16,0.65525,2.990832117,0.30498
0.18,0.73931,3.285423883,0.33502
0.2,0.82406,3.603453543,0.36745
0.22,0.90956,4.042203064,0.41219
0.24,0.99487,4.314337601,0.43994
0.26,1.07962,4.412404101,0.44994
0.28,1.164,4.558915452,0.46488
0.3,1.24794,4.968441156,0.50664
0.32,1.33162,5.073666511,0.51737
0.34,1.41531,5.046011758,0.51455
0.36,1.49887,5.330012342,0.54351
0.38,1.58244,5.728064265,0.5841
0.4,1.666,5.939985972,0.60571
0.42,1.7495,6.131902112,0.62528
0.44,1.83294,6.306852748,0.64312
0.46,1.9165,6.441890319,0.65689
0.48,1.99987,6.699805214,0.68319
0.5,2.08325,6.936439678,0.70732
0.52,2.16669,6.92937889,0.7066
0.54,2.24994,7.060984133,0.72002
0.56,2.33312,7.161011963,0.73022
0.58,2.41656,7.439716956,0.75864
0.6,2.49987,7.595152359,0.77449
0.62,2.58325,7.766670667,0.79198
0.64,2.66669,7.902885036,0.80587
0.66,2.75006,8.09078045,0.82503
0.68,2.83337,8.224641222,0.83868
0.7,2.91675,8.248863648,0.84115
0.72,3.00006,8.379586292,0.85448
0.74,3.08337,8.489028506,0.86564
0.76,3.16675,8.550222002,0.87188
0.78,3.25,8.870311058,0.90452
0.8,3.33325,9.091745215,0.9271
0.82,3.41662,9.242571492,0.94248
0.84,3.49994,9.26924558,0.9452
0.86,3.58325,9.384375651,0.95694
0.88,3.66669,9.332204273,0.95162
0.9,3.75006,9.609242136,0.97987
0.92,3.83337,9.837442881,1.00314
0.94,3.91675,9.938549443,1.01345
0.96,4.00006,9.920112941,1.01157
0.98,4.08337,9.920211007,1.01158
1,4.16675,10.01670844,1.02142
1.02,4.25,10.32179332,1.05253
1.04,4.33325,10.45339857,1.06595
1.06,4.41669,10.7094502,1.09206
1.08,4.5,10.69474022,1.09056
1.1,4.58331,10.75054006,1.09625
1.12,4.66675,10.82340347,1.10368
1.14,4.75006,10.87400579,1.10884
1.16,4.83337,10.93843548,1.11541
1.18,4.91669,10.9424562,1.11582
1.2,5,10.91225172,1.11274
1.22,5.08325,11.09848,1.13173
1.24,5.16662,11.43877076,1.16643
1.26,5.24994,11.56576688,1.17938
1.28,5.33331,11.6491234,1.18788
1.3,5.41669,11.61970345,1.18488
1.32,5.5,11.62960817,1.18589
1.34,5.58331,11.78435711,1.20167
1.36,5.66675,11.87261696,1.21067
1.38,5.75006,11.78229771,1.20146
1.4,5.83337,11.93243752,1.21677
1.42,5.91669,12.09846411,1.2337
1.44,6.00006,12.16573772,1.24056
1.46,6.08331,12.12906085,1.23682
1.48,6.16669,12.02952336,1.22667
1.5,6.25,12.21624197,1.24571
1.52,6.33331,12.37873816,1.26228
1.54,6.41669,12.50671494,1.27533
1.56,6.5,12.57369436,1.28216
1.58,6.58331,12.62851354,1.28775
1.6,6.66675,12.6921587,1.29424
1.62,6.75006,12.7905194,1.30427
1.64,6.83331,12.9231053,1.31779
1.66,6.91669,12.85955821,1.31131
1.68,7,13.00057784,1.32569
1.7,7.08325,13.09942887,1.33577
1.72,7.16669,13.26771098,1.35293
1.74,7.25,13.40774995,1.36721
1.76,7.33337,13.30732985,1.35697
1.78,7.41675,13.37058274,1.36342
1.8,7.50006,13.5343538,1.38012
1.82,7.58337,13.61525866,1.38837
1.84,7.66675,13.58289672,1.38507
1.86,7.75,13.71303096,1.39834
1.88,7.83325,13.66968557,1.39392
1.9,7.91662,13.58603484,1.38539
1.92,7.99994,13.75843575,1.40297
1.94,8.08325,13.8844512,1.41582
1.96,8.16669,13.926914,1.42015
1.98,8.25012,13.90337804,1.41775
2,8.3335,13.92671786,1.42013
2.02,8.41687,14.00164067,1.42777
2.04,8.50019,14.03674848,1.43135
2.06,8.58331,14.11196548,1.43902
2.08,8.66656,14.24092293,1.45217
2.1,8.74975,14.28544512,1.45671
2.12,8.83306,14.24435526,1.45252
2.14,8.91656,14.23111628,1.45117
2.16,9,14.35271874,1.46357
2.18,9.08331,14.28181666,1.45634
2.2,9.16681,14.23592154,1.45166
2.22,9.25012,14.33594937,1.46186
2.24,9.33337,14.53688763,1.48235
2.26,9.41675,14.62406875,1.49124
2.28,9.50006,14.65486163,1.49438
2.3,9.58331,14.82785093,1.51202
2.32,9.66662,14.74812287,1.50389
2.34,9.74994,14.81284676,1.51049
2.36,9.83319,14.93131109,1.52257
2.38,9.91662,14.99583885,1.52915
2.4,10,15.02212067,1.53183
2.42,10.08331,15.13146482,1.54298
2.44,10.16675,15.0659564,1.5363
2.46,10.25006,14.98681673,1.52823
2.48,10.33331,15.02280714,1.5319
2.5,10.41675,14.96033877,1.52553
2.52,10.50006,15.07674371,1.5374
2.54,10.58331,15.16941655,1.54685
2.56,10.66669,15.21129095,1.55112
2.58,10.74994,15.28739055,1.55888
2.6,10.83325,15.38947778,1.56929
2.62,10.91668,15.28827315,1.55897
2.64,11.00006,15.02427813,1.53205
2.66,11.08337,15.09331695,1.53909
2.68,11.16681,15.17010302,1.54692
2.7,11.25006,15.25816674,1.5559
2.72,11.33331,15.28954802,1.5591
2.74,11.41662,15.42213392,1.57262
2.76,11.49994,15.40036316,1.5704
2.78,11.58325,15.40075543,1.57044
2.8,11.66669,15.50696145,1.58127
2.82,11.75006,15.60855834,1.59163
2.84,11.83331,15.55972122,1.58665
2.86,11.91675,15.61983599,1.59278
2.88,12.00006,15.73143566,1.60416
2.9,12.08331,15.64945207,1.5958
2.92,12.16669,15.62552384,1.59336
2.94,12.25,15.74594951,1.60564
2.96,12.33325,15.69819112,1.60077
2.98,12.41669,15.77007387,1.6081
3,12.5,15.98474143,1.62999
3.02,12.58331,15.93923858,1.62535
3.04,12.66675,15.90020811,1.62137
3.06,12.75006,15.9429651,1.62573
3.08,12.83337,15.98189751,1.6297
3.1,12.91675,16.02514483,1.63411
3.12,13.00006,16.03083269,1.63469
3.14,13.08331,15.90658243,1.62202
3.16,13.16669,16.11007042,1.64277
3.18,13.25,16.07564908,1.63926
3.2,13.33325,16.05887971,1.63755
3.22,13.41662,16.10467676,1.64222
3.24,13.5,16.25099198,1.65714
3.26,13.58331,16.20225293,1.65217
3.28,13.66675,15.99552875,1.63109
3.3,13.75006,16.13713677,1.64553
3.32,13.83331,16.22588696,1.65458
3.34,13.91669,16.16773352,1.64865
3.36,14,16.19450568,1.65138
3.38,14.08325,16.25148231,1.65719
3.4,14.16662,16.42751168,1.67514
3.42,14.24994,16.39299227,1.67162
3.44,14.33325,16.30600729,1.66275
3.46,14.41669,16.48664578,1.68117
3.48,14.5,16.63129387,1.69592
3.5,14.58331,16.52665691,1.68525
3.52,14.66675,16.4356512,1.67597
3.54,14.75,16.51841933,1.68441
3.56,14.83331,16.59510733,1.69223
3.58,14.91669,16.47909466,1.6804
3.6,14.99994,16.60452171,1.69319
3.62,15.08325,16.49096071,1.68161
3.64,15.16662,16.50106156,1.68264
3.66,15.25,16.57745536,1.69043
3.68,15.33331,16.70611861,1.70355
3.7,15.41675,16.90284001,1.72361
3.72,15.50006,17.01532228,1.73508
3.74,15.58337,17.03385685,1.73697
3.76,15.66675,17.00453497,1.73398
3.78,15.75006,16.74554134,1.70757
3.8,15.83331,16.82517134,1.71569
3.82,15.91668,16.88773777,1.72207
3.84,16,16.98354874,1.73184
3.86,16.08325,17.05141075,1.73876
3.88,16.16669,17.09897301,1.74361
3.9,16.25,17.02856126,1.73643
3.92,16.33331,17.06955306,1.74061
3.94,16.41675,16.96413157,1.72986
3.96,16.50006,16.95452105,1.72888
3.98,16.58331,16.97629182,1.7311
4,16.66668,17.01228222,1.73477
4.02,16.75006,17.11221198,1.74496
4.04,16.83337,17.26499959,1.76054
4.06,16.91675,17.29961707,1.76407
4.08,17.00006,17.30795272,1.76492
4.1,17.08331,17.27088358,1.76114
4.12,17.16662,17.11162359,1.7449
4.14,17.24993,17.17654361,1.75152
4.16,17.33325,17.09387355,1.74309
4.18,17.41668,17.06886659,1.74054
4.2,17.50006,17.11927277,1.74568
4.22,17.58331,16.94863706,1.72828
4.24,17.66669,16.95216746,1.72864
4.26,17.75,17.0047311,1.734
4.28,17.83331,16.97874348,1.73135
4.3,17.91668,16.98286227,1.73177
4.32,18.00006,17.24881862,1.75889
4.34,18.08337,17.30471652,1.76459
4.36,18.16675,17.40621535,1.77494
4.38,18.25006,17.61764673,1.7965
4.4,18.33331,17.60381935,1.79509
4.42,18.41668,17.54341038,1.78893
4.44,18.5,17.5553745,1.79015
4.46,18.58325,17.43426237,1.7778
4.48,18.66662,17.33129255,1.7673
4.5,18.75,17.41965046,1.77631
4.52,18.83331,17.55223637,1.78983
4.54,18.91675,17.57881239,1.79254
4.56,19.00006,17.44632455,1.77903
4.58,19.08337,17.45230661,1.77964
4.6,19.16668,17.43847923,1.77823
4.62,19.24993,17.51565757,1.7861
4.64,19.33318,17.4944752,1.78394
4.66,19.41656,17.40239076,1.77455
4.68,19.49994,17.43514497,1.77789
4.7,19.58331,17.62872824,1.79763
4.72,19.66675,17.6139202,1.79612
4.74,19.75006,17.57812593,1.79247
4.76,19.83331,17.49467133,1.78396
4.78,19.91675,17.52232609,1.78678
4.8,20.00006,17.73032513,1.80799
4.82,20.08337,17.80014848,1.81511
4.84,20.16668,17.86722597,1.82195
4.86,20.25,17.82397864,1.81754
4.88,20.33331,17.94626757,1.83001
4.9,20.41662,17.96333114,1.83175
4.92,20.5,17.78612497,1.81368
4.94,20.58325,17.84506294,1.81969
4.96,20.66668,17.82799937,1.81795
4.98,20.75,17.89340972,1.82462
5,20.83331,17.87497322,1.82274
5.02,20.91675,17.85918451,1.82113
5.04,21.00006,17.84153254,1.81933
5.06,21.08337,17.79426449,1.81451
5.08,21.16675,17.78308491,1.81337
5.1,21.25,17.83927702,1.8191
5.12,21.33325,17.9090023,1.82621
5.14,21.41662,17.95921234,1.83133
5.16,21.5,17.97941404,1.83339
5.18,21.58331,17.94185457,1.82956
5.2,21.66675,17.94018744,1.82939
5.22,21.75006,18.12670993,1.84841
5.24,21.83337,18.04766833,1.84035
5.26,21.91675,17.97931598,1.83338
5.28,22,18.09366152,1.84504
5.3,22.08331,18.1832943,1.85418
5.32,22.16668,18.07414628,1.84305
5.34,22.25,18.01589478,1.83711
5.36,22.33325,18.09268085,1.84494
5.38,22.41669,18.15887574,1.85169
5.4,22.5,18.03001636,1.83855
5.42,22.58331,18.09552478,1.84523
5.44,22.66675,18.02079811,1.83761
5.46,22.75006,18.123866,1.84812
5.48,22.83337,18.09650544,1.84533
5.5,22.91675,18.16544619,1.85236
5.52,23,18.08483553,1.84414
5.54,23.08325,18.1437735,1.85015
5.56,23.16668,18.23507341,1.85946
5.58,23.25,18.29548237,1.86562
5.6,23.33331,18.31480147,1.86759
5.62,23.41668,18.39482374,1.87575
5.64,23.50006,18.40266906,1.87655
5.66,23.58337,18.39619667,1.87589
5.68,23.66675,18.3758969,1.87382
5.7,23.75006,18.30872135,1.86697
5.72,23.83331,18.19545454,1.85542
5.74,23.91668,18.19721974,1.8556
5.76,23.99993,18.23419081,1.85937
5.78,24.08325,18.36579605,1.87279
5.8,24.16662,18.28145886,1.86419
5.82,24.25,18.2225209,1.85818
5.84,24.33337,18.36922838,1.87314
5.86,24.41681,18.37511237,1.87374
5.88,24.50006,18.55545666,1.89213
5.9,24.58331,18.55310307,1.89189
5.92,24.66668,18.58517081,1.89516
5.94,24.75,18.56340005,1.89294
5.96,24.83325,18.48573138,1.88502
5.98,24.91656,18.52731158,1.88926
6,24.99993,18.62596648,1.89932
6.02,25.08331,18.50809055,1.8873
6.04,25.16675,18.46072443,1.88247
6.06,25.25019,18.51181707,1.88768
6.08,25.3335,18.57212797,1.89383
6.1,25.41687,18.53241104,1.88978
6.12,25.50006,18.58997607,1.89565
6.14,25.58324,18.58644568,1.89529
6.16,25.6665,18.49367477,1.88583
6.18,25.74981,18.51623006,1.88813
6.2,25.83312,18.60370538,1.89705
6.22,25.91662,18.54241382,1.8908
6.24,26.00006,18.61341397,1.89804
6.26,26.08337,18.59772333,1.89644
6.28,26.16681,18.67382293,1.9042
6.3,26.25012,18.7514916,1.91212
6.32,26.33337,18.70039895,1.90691
6.34,26.41675,18.49867616,1.88634
6.36,26.50006,18.61694436,1.8984
6.38,26.58331,18.59556586,1.89622
6.4,26.66668,18.59948852,1.89662
6.42,26.75,18.79719059,1.91678
6.44,26.83325,18.73079957,1.91001
6.46,26.91668,18.69824149,1.90669
6.48,27,18.82082461,1.91919
6.5,27.08331,18.76041565,1.91303
6.52,27.16674,18.69216137,1.90607
6.54,27.25006,18.74756894,1.91172
6.56,27.33337,18.80758564,1.91784
6.58,27.41675,18.71657992,1.90856
6.6,27.50006,18.74864767,1.91183
6.62,27.58331,18.83651525,1.92079
6.64,27.66668,18.82033428,1.91914
6.66,27.74993,18.81346963,1.91844
6.68,27.83325,18.92026404,1.92933
6.7,27.91668,18.86240481,1.92343
6.72,28.00006,18.79091433,1.91614
6.74,28.08337,18.80787984,1.91787
6.76,28.16675,18.88986343,1.92623
6.78,28.25006,18.86819073,1.92402
6.8,28.33331,19.08158344,1.94578
6.82,28.41668,19.1645477,1.95424
6.84,28.5,19.07040386,1.94464
6.86,28.58325,19.26575232,1.96456
6.88,28.66668,19.28938635,1.96697
6.9,28.75,19.11227825,1.94891
6.92,28.83331,19.14836672,1.95259
6.94,28.91675,18.97547548,1.93496
6.96,29.00006,18.98400727,1.93583
6.98,29.08331,18.95850998,1.93323
7,29.16669,18.92938423,1.93026
7.02,29.24993,19.10914012,1.94859
7.04,29.33318,19.22750639,1.96066
7.06,29.41662,19.16768582,1.95456
7.08,29.5,19.25408241,1.96337
7.1,29.58331,19.29203415,1.96724
7.12,29.66675,19.32773035,1.97088
7.14,29.75006,19.22142627,1.96004
7.16,29.83337,19.26918465,1.96491
7.18,29.91674,19.15532945,1.9533
7.2,30.00006,19.20132263,1.95799
7.22,30.08331,19.17729634,1.95554
7.24,30.16668,19.19082952,1.95692
7.26,30.25,19.2816391,1.96618
7.28,30.33325,19.21819007,1.95971
7.3,30.41662,19.09197849,1.94684
7.32,30.49999,19.24761002,1.96271
7.34,30.58331,19.22564313,1.96047
7.36,30.66675,19.144346,1.95218
7.38,30.75006,19.37127188,1.97532
7.4,30.83337,19.44580242,1.98292
7.42,30.91668,19.09992187,1.94765
7.44,31,19.08874229,1.94651
7.46,31.08324,19.37068348,1.97526
7.48,31.16668,19.48914781,1.98734
7.5,31.25,19.46649445,1.98503
7.52,31.33331,19.38107853,1.97632
7.54,31.41674,19.36323043,1.9745
7.56,31.50006,19.53710233,1.99223
7.58,31.58337,19.44982314,1.98333
7.6,31.66674,19.47855663,1.98626
7.62,31.75006,19.46051239,1.98442
7.64,31.83331,19.38921805,1.97715
7.66,31.91662,19.27546091,1.96555
7.68,31.99993,19.33439887,1.97156
7.7,32.08324,19.56220735,1.99479
7.72,32.16668,19.62604865,2.0013
7.74,32.25006,19.62447958,2.00114
7.76,32.33337,19.59525576,1.99816
7.78,32.41675,19.47355524,1.98575
7.8,32.50006,19.46825965,1.98521
7.82,32.58331,19.51356637,1.98983
7.84,32.66668,19.67115924,2.0059
7.86,32.75,19.81825899,2.0209
7.88,32.83331,19.70165792,2.00901
7.9,32.91668,19.56681648,1.99526
7.92,33,19.53651393,1.99217
7.94,33.08331,19.52778601,1.99128
7.96,33.16668,19.53945593,1.99247
7.98,33.25006,19.62830417,2.00153
8,33.33331,19.60153202,1.9988
8.02,33.41675,19.66096032,2.00486
8.04,33.49999,19.80894267,2.01995
8.06,33.58331,19.77187353,2.01617
8.08,33.66675,19.81688605,2.02076
8.1,33.75006,19.68224075,2.00703
8.12,33.83337,19.69646039,2.00848
8.14,33.91681,19.98252037,2.03765
8.16,34.00006,20.05567798,2.04511
8.18,34.08324,19.94339184,2.03366
8.2,34.16656,19.82502557,2.02159
8.22,34.24993,19.94447057,2.03377
8.24,34.33324,19.93427165,2.03273
8.26,34.41668,19.9262302,2.03191
8.28,34.49999,19.92407274,2.03169
8.3,34.58331,19.85915272,2.02507
8.32,34.66668,19.92319014,2.0316
8.34,34.75,19.74922017,2.01386
8.36,34.83331,19.83257669,2.02236
8.38,34.91668,19.83914715,2.02303
8.4,35.00006,19.83002697,2.0221
8.42,35.08331,19.92348434,2.03163
8.44,35.16675,19.98516817,2.03792
8.46,35.24999,19.95025649,2.03436
8.48,35.33325,20.0825482,2.04785
8.5,35.41662,20.0471462,2.04424
8.52,35.49999,19.98212811,2.03761
8.54,35.58324,20.12814913,2.0525
8.56,35.66662,20.1844393,2.05824
8.58,35.75,20.22621563,2.0625
8.6,35.83331,20.14648756,2.05437
8.62,35.91681,20.10784936,2.05043
8.64,36.00012,20.2382778,2.06373
8.66,36.08337,20.2994713,2.06997
8.68,36.16668,20.23729714,2.06363
8.7,36.24993,20.10696676,2.05034
8.72,36.33318,20.14099584,2.05381
8.74,36.41662,20.22886342,2.06277
8.76,36.5,20.18698903,2.0585
8.78,36.58331,20.10981069,2.05063
8.8,36.66668,20.12834526,2.05252
8.82,36.75006,20.30427656,2.07046
8.84,36.83337,20.28819365,2.06882
8.86,36.91674,20.24249466,2.06416
8.88,37.00006,20.32898932,2.07298
8.9,37.08337,20.39312481,2.07952
8.92,37.16674,20.35291754,2.07542
8.94,37.24999,20.09568911,2.04919
8.96,37.33331,20.19875701,2.0597
8.98,37.41668,20.33193131,2.07328
9,37.49999,20.46000616,2.08634
9.02,37.58331,20.35556534,2.07569
9.04,37.66668,20.30104036,2.07013
9.06,37.75006,20.21572251,2.06143
9.08,37.83337,20.28417293,2.06841
9.1,37.91675,20.40057786,2.08028
9.12,38.00006,20.41067871,2.08131
9.14,38.08331,20.39018281,2.07922
9.16,38.16668,20.30613982,2.07065
9.18,38.24993,20.33673657,2.07377
9.2,38.33324,20.39587067,2.0798
9.22,38.41662,20.43117461,2.0834
9.24,38.5,20.3413457,2.07424
9.26,38.58331,20.28623232,2.06862
9.28,38.66674,20.34007083,2.07411
9.3,38.75006,20.50423415,2.09085
9.32,38.83331,20.54277429,2.09478
9.34,38.91668,20.43411661,2.0837
9.36,38.99993,20.56425085,2.09697
9.38,39.08325,20.46010423,2.08635
9.4,39.16662,20.54640275,2.09515
9.42,39.24993,20.44323679,2.08463
9.44,39.33324,20.53639996,2.09413
9.46,39.41668,20.70674148,2.1115
9.48,39.49999,20.68771657,2.10956
9.5,39.58337,20.69516963,2.11032
9.52,39.66675,20.67104527,2.10786
9.54,39.75006,20.56925224,2.09748
9.56,39.8333,20.60377165,2.101
9.58,39.91668,20.66565161,2.10731
9.6,39.99999,20.69016824,2.10981
9.62,40.08324,20.74135895,2.11503
9.64,40.16662,20.74420288,2.11532
9.66,40.25,20.73606336,2.11449
9.68,40.33331,20.59729926,2.10034
9.7,40.41668,20.66084635,2.10682
9.72,40.50006,20.75783412,2.11671
9.74,40.5833,20.77989908,2.11896
9.76,40.66675,20.72831611,2.1137
9.78,40.75006,20.68516685,2.1093
9.8,40.8333,20.86472661,2.12761
9.82,40.91662,20.9098372,2.13221
9.84,40.99999,20.82589227,2.12365
9.86,41.08324,20.89787308,2.13099
9.88,41.16668,21.01712195,2.14315
9.9,41.25006,21.07880578,2.14944
9.92,41.33337,20.97995474,2.13936
9.94,41.41674,21.07096046,2.14864
9.96,41.50006,21.06546873,2.14808
9.98,41.58331,20.86129428,2.12726
10,41.66668,20.75763799,2.11669
10.02,41.74993,20.87316033,2.12847
10.04,41.83325,20.95141739,2.13645
10.06,41.91668,20.94416047,2.13571
10.08,41.99999,21.07351019,2.1489
10.1,42.08331,20.96799063,2.13814
10.12,42.16681,20.87423906,2.12858
10.14,42.25018,20.96122404,2.13745
10.16,42.3335,20.92180131,2.13343
10.18,42.41681,20.85364509,2.12648
10.2,42.50005,21.03222419,2.14469
10.22,42.58318,21.06429193,2.14796
10.24,42.66656,20.86864927,2.12801
10.26,42.74987,20.77921262,2.11889
10.28,42.83318,21.08929889,2.15051
10.3,42.91668,21.36329669,2.17845
10.32,43.00006,21.49225414,2.1916
10.34,43.08337,21.3565301,2.17776
10.36,43.16675,21.19011125,2.16079
10.38,43.25012,21.10038041,2.15164
10.4,43.33337,21.11764011,2.1534
10.42,43.41675,21.21335301,2.16316
10.44,43.50006,21.35201905,2.1773
10.46,43.58324,21.32181456,2.17422
10.48,43.66662,21.30553552,2.17256
10.5,43.74993,21.31083112,2.1731
10.52,43.83324,21.42292112,2.18453
10.54,43.91668,21.29876894,2.17187
10.56,44,21.32132423,2.17417
10.58,44.08331,21.35721657,2.17783
10.6,44.16674,21.34427179,2.17651
10.62,44.25006,21.46656072,2.18898
10.64,44.33337,21.49519614,2.1919
10.66,44.41674,21.44586869,2.18687
10.68,44.49999,21.42458826,2.1847
10.7,44.58325,21.52187022,2.19462
10.72,44.66656,21.57070734,2.1996
10.74,44.74993,21.57364934,2.1999
10.76,44.83324,21.56560788,2.19908
10.78,44.91668,21.73742039,2.2166
10.8,45.00006,21.6738733,2.21012
10.82,45.08343,21.61513146,2.20413
10.84,45.16675,21.62631105,2.20527
10.86,45.25006,21.67495203,2.21023
10.88,45.33324,21.58433858,2.20099
10.9,45.41668,21.51029838,2.19344
10.92,45.49999,21.6112088,2.20373
10.94,45.58331,21.6311163,2.20576
10.96,45.66668,21.60316735,2.20291
10.98,45.75005,21.49519614,2.1919
11,45.83337,21.55403604,2.1979
11.02,45.91674,21.58708445,2.20127
11.04,46.00006,21.68721034,2.21148
11.06,46.0833,21.73369386,2.21622
11.08,46.16662,21.7520323,2.21809
11.1,46.24993,21.90766383,2.23396
11.12,46.33325,21.84088055,2.22715
11.14,46.41662,21.89815138,2.23299
11.16,46.49999,21.98337117,2.24168
11.18,46.58337,22.02220551,2.24564
11.2,46.66674,22.02799143,2.24623
11.22,46.75006,21.87598835,2.23073
11.24,46.83337,21.88530467,2.23168
11.26,46.91674,21.88628534,2.23178
11.28,47.00006,21.84509741,2.22758
11.3,47.08331,21.95846228,2.23914
11.32,47.16668,22.07153296,2.25067
11.34,47.24999,21.96493467,2.2398
11.36,47.33331,21.76507514,2.21942
11.38,47.41668,21.87304636,2.23043
11.4,47.50005,22.07172909,2.25069
11.42,47.58337,22.05378292,2.24886
11.44,47.66674,22.11036729,2.25463
11.46,47.75005,22.00837813,2.24423
11.48,47.8333,21.90736963,2.23393
11.5,47.91668,22.01328145,2.24473
11.52,47.99999,21.96758247,2.24007
11.54,48.08324,22.12958832,2.25659
11.56,48.16662,22.19450835,2.26321
11.58,48.24999,22.19235088,2.26299
11.6,48.3333,22.19931361,2.2637
11.62,48.41668,22.21412165,2.26521
11.64,48.50006,22.27394221,2.27131
11.66,48.58337,22.1817597,2.26191
11.68,48.66675,22.11644741,2.25525
11.7,48.74999,22.18852629,2.2626
11.72,48.83324,22.36475179,2.28057
11.74,48.91662,22.36073106,2.28016
11.76,48.99993,22.12095847,2.25571
11.78,49.08324,22.19852907,2.26362
11.8,49.16668,22.36916478,2.28102
11.82,49.25,22.44879478,2.28914
11.84,49.33331,22.45399231,2.28967
11.86,49.41668,22.5330339,2.29773
11.88,49.5,22.58089036,2.30261
11.9,49.58331,22.56333645,2.30082
11.92,49.66668,22.4783128,2.29215
11.94,49.74999,22.50959601,2.29534
11.96,49.83325,22.51057668,2.29544
11.98,49.91662,22.44389146,2.28864
12,49.99993,22.48311806,2.29264
12.02,50.08325,22.59236414,2.30378
