Time,Extension,Load,
(sec),(mm),(N),(kgf)
0,0,2.412141701,0.24597
0.02,0.01156,2.366834978,0.24135
0.04,0.06806,2.713794255,0.27673
0.06,0.16525,3.257474931,0.33217
0.08,0.27781,3.66209731,0.37343
0.1,0.38575,3.836557613,0.39122
0.12,0.4825,3.971497117,0.40498
0.14,0.57069,4.421818485,0.4509
0.16,0.65519,4.828500261,0.49237
0.18,0.73925,5.077393038,0.51775
0.2,0.82412,5.295198734,0.53996
0.22,0.90956,5.609207667,0.57198
0.24,0.99487,5.790630692,0.59048
0.26,1.07962,5.805831,0.59203
0.28,1.164,5.92517793,0.6042
0.3,1.24794,6.05295858,0.61723
0.32,1.33162,6.253308439,0.63766
0.34,1.41531,6.594089527,0.67241
0.36,1.49887,6.806305433,0.69405
0.38,1.58244,7.007047558,0.71452
0.4,1.666,7.050687151,0.71897
0.42,1.74944,7.203278625,0.73453
0.44,1.83294,7.458545724,0.76056
0.46,1.9165,7.528467139,0.76769
0.48,1.99994,7.644970141,0.77957
0.5,2.08325,7.942700035,0.80993
0.52,2.16669,8.227289018,0.83895
0.54,2.24994,8.297504632,0.84611
0.56,2.33312,8.363699519,0.85286
0.58,2.41656,8.361934322,0.85268
0.6,2.49987,8.58081875,0.875
0.62,2.58325,8.623379611,0.87934
0.64,2.66669,8.574052162,0.87431
0.66,2.75006,8.766262502,0.89391
0.68,2.83337,9.102630597,0.92821
0.7,2.91675,9.152644512,0.93331
0.72,3.00012,9.182456728,0.93635
0.74,3.08337,9.296606134,0.94799
0.76,3.16675,9.396339764,0.95816
0.78,3.25,9.516863493,0.97045
0.8,3.33325,9.651116531,0.98414
0.82,3.41662,9.808317131,1.00017
0.84,3.49994,9.828911096,1.00227
0.86,3.58325,9.889221993,1.00842
0.88,3.66662,10.15900293,1.03593
0.9,3.75006,10.28511645,1.04879
0.92,3.83331,10.24588985,1.04479
0.94,3.91675,10.32748118,1.05311
0.96,4.00006,10.40828798,1.06135
0.98,4.08337,10.56048719,1.07687
1,4.16675,10.59039747,1.07992
1.02,4.25,10.77917548,1.09917
1.04,4.33325,10.75004973,1.0962
1.06,4.41669,10.71229413,1.09235
1.08,4.5,10.76603457,1.09783
1.1,4.58331,10.91862604,1.11339
1.12,4.66675,11.00384583,1.12208
1.14,4.75006,11.10534466,1.13243
1.16,4.83337,11.17605061,1.13964
1.18,4.91669,11.20978548,1.14308
1.2,5,11.24361842,1.14653
1.22,5.08325,11.3159915,1.15391
1.24,5.16662,11.42092266,1.16461
1.26,5.25,11.52232342,1.17495
1.28,5.33325,11.53654306,1.1764
1.3,5.41669,11.5938139,1.18224
1.32,5.5,11.67001157,1.19001
1.34,5.58331,11.62578358,1.1855
1.36,5.66675,11.68962487,1.19201
1.38,5.75006,11.8265257,1.20597
1.4,5.83337,11.99569041,1.22322
1.42,5.91669,12.17662311,1.24167
1.44,6,12.28312332,1.25253
1.46,6.08331,12.29920623,1.25417
1.48,6.16669,12.28547692,1.25277
1.5,6.25,12.36677405,1.26106
1.52,6.33331,12.43041921,1.26755
1.54,6.41669,12.49533923,1.27417
1.56,6.5,12.54878547,1.27962
1.58,6.58331,12.57565569,1.28236
1.6,6.66669,12.36481272,1.26086
1.62,6.75,12.47111681,1.2717
1.64,6.83331,12.60978284,1.28584
1.66,6.91669,12.65361856,1.29031
1.68,7,12.81621282,1.30689
1.7,7.08325,12.8838787,1.31379
1.72,7.16662,12.87495465,1.31288
1.74,7.25,13.06137907,1.33189
1.76,7.33337,13.14346073,1.34026
1.78,7.41675,13.17131162,1.3431
1.8,7.50006,13.1198267,1.33785
1.82,7.58337,13.06883212,1.33265
1.84,7.66675,12.96752943,1.32232
1.86,7.75,13.06000614,1.33175
1.88,7.83325,13.24956868,1.35108
1.9,7.91662,13.38186039,1.36457
1.92,7.99994,13.48620315,1.37521
1.94,8.08325,13.45031081,1.37155
1.96,8.16669,13.41451654,1.3679
1.98,8.25012,13.44275969,1.37078
2,8.3335,13.36548329,1.3629
2.02,8.41687,13.45972519,1.37251
2.04,8.50019,13.58819231,1.38561
2.06,8.58331,13.6508568,1.392
2.08,8.66656,13.73793985,1.40088
2.1,8.74981,13.67929609,1.3949
2.12,8.83312,13.81492205,1.40873
2.14,8.91656,13.7266622,1.39973
2.16,9,13.76314294,1.40345
2.18,9.08331,13.81384332,1.40862
2.2,9.16675,13.8853338,1.41591
2.22,9.25012,13.98555776,1.42613
2.24,9.33337,13.89994571,1.4174
2.26,9.41675,13.99144175,1.42673
2.28,9.50006,14.01125119,1.42875
2.3,9.58331,14.07293502,1.43504
2.32,9.66662,14.13187298,1.44105
2.34,9.74987,14.2600459,1.45412
2.36,9.83319,14.24464946,1.45255
2.38,9.91662,14.13010779,1.44087
2.4,10,13.97594725,1.42515
2.42,10.08331,14.19198775,1.44718
2.44,10.16675,14.2020886,1.44821
2.46,10.25006,14.34497149,1.46278
2.48,10.33331,14.33045765,1.4613
2.5,10.41675,14.3373223,1.462
2.52,10.50006,14.55463766,1.48416
2.54,10.58331,14.66447214,1.49536
2.56,10.66669,14.5328669,1.48194
2.58,10.74994,14.53541663,1.4822
2.6,10.83325,14.57915429,1.48666
2.62,10.91668,14.60023859,1.48881
2.64,11.00006,14.70360068,1.49935
2.66,11.08337,14.65476356,1.49437
2.68,11.16681,14.53727989,1.48239
2.7,11.25006,14.58033109,1.48678
2.72,11.33331,14.66074562,1.49498
2.74,11.41662,14.68232025,1.49718
2.76,11.49994,14.91591465,1.521
2.78,11.58325,14.9652421,1.52603
2.8,11.66669,14.84795457,1.51407
2.82,11.75006,14.86188001,1.51549
2.84,11.83331,14.8068647,1.50988
2.86,11.91675,14.85766315,1.51506
2.88,12.00006,14.85060236,1.51434
2.9,12.08331,14.89747815,1.51912
2.92,12.16669,14.87845325,1.51718
2.94,12.25,14.99485818,1.52905
2.96,12.33325,15.09841641,1.53961
2.98,12.41669,15.15637371,1.54552
3,12.5,15.17284888,1.5472
3.02,12.58331,15.14254633,1.54411
3.04,12.66675,15.25963773,1.55605
3.06,12.75006,15.18638206,1.54858
3.08,12.83337,15.15892344,1.54578
3.1,12.91675,15.13803527,1.54365
3.12,13.00006,15.12342336,1.54216
3.14,13.08331,15.0823335,1.53797
3.16,13.16669,15.06144534,1.53584
3.18,13.25,15.10420233,1.5402
3.2,13.33331,15.24963495,1.55503
3.22,13.41662,15.4175248,1.57215
3.24,13.5,15.4728343,1.57779
3.26,13.58331,15.28915575,1.55906
3.28,13.66668,15.29964886,1.56013
3.3,13.75006,15.40487422,1.57086
3.32,13.83331,15.39428304,1.56978
3.34,13.91669,15.25002722,1.55507
3.36,14,15.3785924,1.56818
3.38,14.08325,15.41497507,1.57189
3.4,14.16662,15.39369464,1.56972
3.42,14.24994,15.46234119,1.57672
3.44,14.33325,15.42988118,1.57341
3.46,14.41669,15.45184807,1.57565
3.48,14.5,15.52373082,1.58298
3.5,14.58331,15.66749631,1.59764
3.52,14.66675,15.72172708,1.60317
3.54,14.75,15.78497997,1.60962
3.56,14.83331,15.79360983,1.6105
3.58,14.91669,15.75801169,1.60687
3.6,14.99994,15.65817999,1.59669
3.62,15.08325,15.62571998,1.59338
3.64,15.16662,15.48362162,1.57889
3.66,15.25,15.70505578,1.60147
3.68,15.33331,15.78576451,1.6097
3.7,15.41675,15.82302978,1.6135
3.72,15.50006,15.77380039,1.60848
3.74,15.58337,15.62660258,1.59347
3.76,15.66675,15.74457658,1.6055
3.78,15.75006,15.80881013,1.61205
3.8,15.83331,15.7667396,1.60776
3.82,15.91668,15.7084881,1.60182
3.84,16,15.70181958,1.60114
3.86,16.08331,15.89501059,1.62084
3.88,16.16669,15.86304091,1.61758
3.9,16.25,15.81773418,1.61296
3.92,16.33331,16.01926084,1.63351
3.94,16.41675,16.08506346,1.64022
3.96,16.50006,16.06809796,1.63849
3.98,16.58331,16.07908141,1.63961
4,16.66668,16.02112411,1.6337
4.02,16.75006,16.07045155,1.63873
4.04,16.83337,15.97405219,1.6289
4.06,16.91681,16.08182727,1.63989
4.08,17.00006,16.07937561,1.63964
4.1,17.08331,16.01170972,1.63274
4.12,17.16662,16.15057189,1.6469
4.14,17.24993,16.13645031,1.64546
4.16,17.33325,16.03857994,1.63548
4.18,17.41668,16.14890475,1.64673
4.2,17.50006,16.06858829,1.63854
4.22,17.58331,15.97826904,1.62933
4.24,17.66669,16.05770291,1.63743
4.26,17.75,16.18617002,1.65053
4.28,17.83331,16.22294496,1.65428
4.3,17.91668,16.19401534,1.65133
4.32,18.00006,16.33591757,1.6658
4.34,18.08337,16.32885678,1.66508
4.36,18.16675,16.3551386,1.66776
4.38,18.25006,16.26530969,1.6586
4.4,18.33331,16.04524846,1.63616
4.42,18.41668,16.25922957,1.65798
4.44,18.49993,16.37641903,1.66993
4.46,18.58325,16.43319954,1.67572
4.48,18.66662,16.43192467,1.67559
4.5,18.75,16.40770225,1.67312
4.52,18.83331,16.27766607,1.65986
4.54,18.91675,16.28678625,1.66079
4.56,19.00012,16.34180156,1.6664
4.58,19.08337,16.22608309,1.6546
4.6,19.16668,16.34189963,1.66641
4.62,19.24993,16.51077014,1.68363
4.64,19.33318,16.52714725,1.6853
4.66,19.41662,16.6294306,1.69573
4.68,19.49994,16.60256038,1.69299
4.7,19.58325,16.50763201,1.68331
4.72,19.66675,16.43496474,1.6759
4.74,19.75006,16.58127995,1.69082
4.76,19.83331,16.53842489,1.68645
4.78,19.91675,16.35405987,1.66765
4.8,20.00006,16.40838871,1.67319
4.82,20.08337,16.37435964,1.66972
4.84,20.16668,16.60530625,1.69327
4.86,20.25,16.78045301,1.71113
4.88,20.33331,16.77505936,1.71058
4.9,20.41668,16.73897089,1.7069
4.92,20.5,16.81291303,1.71444
4.94,20.58325,16.6531627,1.69815
4.96,20.66668,16.7491698,1.70794
4.98,20.75,16.87047806,1.72031
5,20.83331,16.83988131,1.71719
5.02,20.91675,16.75691705,1.70873
5.04,21.00006,16.74044188,1.70705
5.06,21.08331,16.7102374,1.70397
5.08,21.16675,16.72818357,1.7058
5.1,21.25,16.93363289,1.72675
5.12,21.33331,16.91303892,1.72465
5.14,21.41662,16.77319609,1.71039
5.16,21.5,16.83527219,1.71672
5.18,21.58331,16.8697916,1.72024
5.2,21.66675,16.87636205,1.72091
5.22,21.75006,16.78496407,1.71159
5.24,21.83337,16.79790885,1.71291
5.26,21.91675,16.85743522,1.71898
5.28,22.00006,16.81928735,1.71509
5.3,22.08331,16.75750545,1.70879
5.32,22.16668,17.02689413,1.73626
5.34,22.25,16.95167712,1.72859
5.36,22.33331,16.91951131,1.72531
5.38,22.41669,16.92127651,1.72549
5.4,22.5,16.87077226,1.72034
5.42,22.58331,17.01787201,1.73534
5.44,22.66675,17.09348128,1.74305
5.46,22.75006,16.97168269,1.73063
5.48,22.83337,16.84243104,1.71745
5.5,22.91675,16.92343397,1.72571
5.52,23,16.96207217,1.72965
5.54,23.08325,17.06464973,1.74011
5.56,23.16662,17.0609232,1.73973
5.58,23.25,17.21694701,1.75564
5.6,23.33325,17.11888051,1.74564
5.62,23.41668,17.23685451,1.75767
5.64,23.50006,17.13810154,1.7476
5.66,23.58337,17.24499403,1.7585
5.68,23.66675,17.20076603,1.75399
5.7,23.75006,17.11368298,1.74511
5.72,23.83331,17.02875739,1.73645
5.74,23.91662,17.17566101,1.75143
5.76,23.99993,17.16614856,1.75046
5.78,24.08325,16.97482082,1.73095
5.8,24.16662,17.11691918,1.74544
5.82,24.25,17.27166811,1.76122
5.84,24.33337,17.17821074,1.75169
5.86,24.41681,17.18370246,1.75225
5.88,24.50006,17.3969971,1.774
5.9,24.58331,17.31452317,1.76559
5.92,24.66668,17.31981876,1.76613
5.94,24.74993,17.30854112,1.76498
5.96,24.83325,17.20488483,1.75441
5.98,24.91656,17.2778463,1.76185
6,24.99993,17.27068745,1.76112
6.02,25.08331,17.36463516,1.7707
6.04,25.16675,17.48731635,1.78321
6.06,25.25012,17.45770026,1.78019
6.08,25.3335,17.35767243,1.76999
6.1,25.41687,17.3384514,1.76803
6.12,25.50006,17.59028617,1.79371
6.14,25.58324,17.55861069,1.79048
6.16,25.6665,17.52222802,1.78677
6.18,25.74981,17.48123622,1.78259
6.2,25.83312,17.48378595,1.78285
6.22,25.91662,17.62137325,1.79688
6.24,26.00006,17.60009282,1.79471
6.26,26.08337,17.47868649,1.78233
6.28,26.16675,17.36796942,1.77104
6.3,26.25012,17.36944041,1.77119
6.32,26.33337,17.30883532,1.76501
6.34,26.41675,17.2983422,1.76394
6.36,26.50006,17.59058037,1.79374
6.38,26.58331,17.6142144,1.79615
6.4,26.66668,17.62833597,1.79759
6.42,26.74993,17.61372407,1.7961
6.44,26.83325,17.45622927,1.78004
6.46,26.91662,17.29196788,1.76329
6.48,27,17.49153321,1.78364
6.5,27.08331,17.54821564,1.78942
6.52,27.16668,17.53948772,1.78853
6.54,27.25006,17.58675578,1.79335
6.56,27.33337,17.49673073,1.78417
6.58,27.41675,17.53968386,1.78855
6.6,27.50006,17.5904823,1.79373
6.62,27.58331,17.68580294,1.80345
6.64,27.66668,17.67109297,1.80195
6.66,27.74993,17.71159443,1.80608
6.68,27.83325,17.75631276,1.81064
6.7,27.91668,17.57135934,1.79178
6.72,28.00006,17.59009004,1.79369
6.74,28.08337,17.65893272,1.80071
6.76,28.16675,17.84025768,1.8192
6.78,28.25006,17.71326156,1.80625
6.8,28.33331,17.80426727,1.81553
6.82,28.41668,17.8062286,1.81573
6.84,28.5,17.7690614,1.81194
6.86,28.58325,17.75346883,1.81035
6.88,28.66668,17.68168415,1.80303
6.9,28.75,17.67021037,1.80186
6.92,28.83331,17.73728786,1.8087
6.94,28.91675,17.86869697,1.8221
6.96,29.00006,17.95323029,1.83072
6.98,29.08331,17.94479657,1.82986
7,29.16669,17.89184066,1.82446
7.02,29.24993,17.83770795,1.81894
7.04,29.33318,17.85467346,1.82067
7.06,29.41662,17.81289713,1.81641
7.08,29.5,17.85614445,1.82082
7.1,29.58331,17.9464637,1.83003
7.12,29.66675,17.89880338,1.82517
7.14,29.75006,17.75317463,1.81032
7.16,29.83337,17.66471865,1.8013
7.18,29.91674,17.83790408,1.81896
7.2,30.00006,17.89978405,1.82527
7.22,30.08331,18.01511025,1.83703
7.24,30.16668,17.97549138,1.83299
7.26,30.25,17.99088782,1.83456
7.28,30.33325,17.88948706,1.82422
7.3,30.41662,17.86487237,1.82171
7.32,30.49999,17.81319133,1.81644
7.34,30.58331,17.97343199,1.83278
7.36,30.66675,18.07395015,1.84303
7.38,30.75006,18.00755913,1.83626
7.4,30.83337,18.02305364,1.83784
7.42,30.91668,18.01265859,1.83678
7.44,31,18.13259392,1.84901
7.46,31.08324,18.14710776,1.85049
7.48,31.16668,18.24076127,1.86004
7.5,31.25,18.26939668,1.86296
7.52,31.33331,18.19378741,1.85525
7.54,31.41674,18.07924574,1.84357
7.56,31.50006,18.07699021,1.84334
7.58,31.58337,18.19761201,1.85564
7.6,31.66674,18.12435633,1.84817
7.62,31.75006,18.09346538,1.84502
7.64,31.83331,18.04413793,1.83999
7.66,31.91662,18.00853979,1.83636
7.68,31.99999,18.03276222,1.83883
7.7,32.08324,18.19712167,1.85559
7.72,32.16668,18.23958447,1.85992
7.74,32.25006,18.10748889,1.84645
7.76,32.33337,18.19329708,1.8552
7.78,32.41675,18.41100471,1.8774
7.8,32.50006,18.36775738,1.87299
7.82,32.58331,18.33117858,1.86926
7.84,32.66668,18.18398076,1.85425
7.86,32.75006,18.18084263,1.85393
7.88,32.83331,18.21447944,1.85736
7.9,32.91668,18.28812739,1.86487
7.92,33,18.34863442,1.87104
7.94,33.08331,18.32401972,1.86853
7.96,33.16668,18.17721417,1.85356
7.98,33.25006,18.18309816,1.85416
8,33.33331,18.25625577,1.86162
8.02,33.41668,18.21908857,1.85783
8.04,33.49999,18.21222391,1.85713
8.06,33.58331,18.20300566,1.85619
8.08,33.66668,18.25252925,1.86124
8.1,33.75006,18.36618832,1.87283
8.12,33.83337,18.34951701,1.87113
8.14,33.91681,18.35510681,1.8717
8.16,34.00006,18.33372831,1.86952
8.18,34.08324,18.33019791,1.86916
8.2,34.16662,18.40090386,1.87637
8.22,34.24993,18.55261274,1.89184
8.24,34.33324,18.49455737,1.88592
8.26,34.41668,18.36432506,1.87264
8.28,34.49999,18.43022574,1.87936
8.3,34.58331,18.47445374,1.88387
8.32,34.66668,18.56869564,1.89348
8.34,34.75,18.5749719,1.89412
8.36,34.83331,18.5173088,1.88824
8.38,34.91668,18.54800361,1.89137
8.4,35.00006,18.54692488,1.89126
8.42,35.08331,18.48573138,1.88502
8.44,35.16675,18.54515968,1.89108
8.46,35.24999,18.62429935,1.89915
8.48,35.33325,18.69902602,1.90677
8.5,35.41662,18.70167382,1.90704
8.52,35.49999,18.61204104,1.8979
8.54,35.58324,18.49210571,1.88567
8.56,35.66662,18.53025357,1.88956
8.58,35.75,18.5761487,1.89424
8.6,35.83337,18.55222047,1.8918
8.62,35.91681,18.67725526,1.90455
8.64,36.00012,18.74815734,1.91178
8.66,36.08337,18.7318783,1.91012
8.68,36.16668,18.85740342,1.92292
8.7,36.24993,19.00636643,1.93811
8.72,36.33318,18.91349746,1.92864
8.74,36.41662,18.78826654,1.91587
8.76,36.49993,18.6745094,1.90427
8.78,36.58331,18.75531619,1.91251
8.8,36.66668,18.73972362,1.91092
8.82,36.75006,18.58821088,1.89547
8.84,36.83337,18.67921659,1.90475
8.86,36.91674,18.68627738,1.90547
8.88,37.00006,18.83877078,1.92102
8.9,37.08337,19.026372,1.94015
8.92,37.16674,18.98900866,1.93634
8.94,37.24999,18.89525709,1.92678
8.96,37.33324,18.89349189,1.9266
8.98,37.41668,18.97214122,1.93462
9,37.49999,19.06716766,1.94431
9.02,37.58331,19.09894121,1.94755
9.04,37.66668,18.8659352,1.92379
9.06,37.75006,18.89231509,1.92648
9.08,37.83337,18.95184146,1.93255
9.1,37.91675,18.97576968,1.93499
9.12,38.00006,18.98577247,1.93601
9.14,38.08331,19.06069527,1.94365
9.16,38.16668,18.91487039,1.92878
9.18,38.24993,18.99940371,1.9374
9.2,38.33324,19.00666063,1.93814
9.22,38.41662,18.88015485,1.92524
9.24,38.5,19.0445143,1.942
9.26,38.58331,19.17690408,1.9555
9.28,38.66674,19.19475218,1.95732
9.3,38.75006,19.09541081,1.94719
9.32,38.83331,19.01019103,1.9385
9.34,38.91668,18.96988569,1.93439
9.36,38.99999,19.1229675,1.95
9.38,39.08325,19.13355868,1.95108
9.4,39.16662,19.04049357,1.94159
9.42,39.24993,19.1806306,1.95588
9.44,39.33324,19.20514723,1.95838
9.46,39.41668,19.08864423,1.9465
9.48,39.49999,19.02872559,1.94039
9.5,39.5833,19.07373812,1.94498
9.52,39.66675,19.17778667,1.95559
9.54,39.75006,19.14866092,1.95262
9.56,39.8333,19.15140679,1.9529
9.58,39.91668,19.15856564,1.95363
9.6,39.99999,19.21730747,1.95962
9.62,40.08324,19.20181297,1.95804
9.64,40.16662,19.15307392,1.95307
9.66,40.25,19.1405214,1.95179
9.68,40.33331,19.07432652,1.94504
9.7,40.41674,19.3188063,1.96997
9.72,40.50006,19.35970003,1.97414
9.74,40.5833,19.27163631,1.96516
9.76,40.66675,19.32929942,1.97104
9.78,40.75006,19.29360321,1.9674
9.8,40.8333,19.3416558,1.9723
9.82,40.91662,19.30811705,1.96888
9.84,40.99993,19.16876456,1.95467
9.86,41.08324,19.21279641,1.95916
9.88,41.16668,19.44884248,1.98323
9.9,41.25006,19.52768795,1.99127
9.92,41.33337,19.46904418,1.98529
9.94,41.41674,19.56122669,1.99469
9.96,41.50006,19.53700426,1.99222
9.98,41.58331,19.38951225,1.97718
10,41.66668,19.41108688,1.97938
10.02,41.74999,19.49836606,1.98828
10.04,41.83325,19.50062159,1.98851
10.06,41.91668,19.48355802,1.98677
10.08,41.99999,19.34449972,1.97259
10.1,42.08331,19.3609749,1.97427
10.12,42.16681,19.27232278,1.96523
10.14,42.25018,19.31439331,1.96952
10.16,42.3335,19.54965484,1.99351
10.18,42.41681,19.6329133,2.002
10.2,42.50005,19.56760101,1.99534
10.22,42.58324,19.68292722,2.0071
10.24,42.66656,19.59564803,1.9982
10.26,42.74987,19.69008607,2.00783
10.28,42.83318,19.74176712,2.0131
10.3,42.91662,19.60810248,1.99947
10.32,43.00006,19.68145622,2.00695
10.34,43.08337,19.58368392,1.99698
10.36,43.16675,19.46669058,1.98505
10.38,43.25012,19.54710511,1.99325
10.4,43.33337,19.71303363,2.01017
10.42,43.41675,19.7321566,2.01212
10.44,43.50006,19.70577671,2.00943
10.46,43.58331,19.71175877,2.01004
10.48,43.66662,19.76049782,2.01501
10.5,43.74993,19.70293278,2.00914
10.52,43.83324,19.48699035,1.98712
10.54,43.91662,19.52464788,1.99096
10.56,44,19.66792304,2.00557
10.58,44.08331,19.73617732,2.01253
10.6,44.16674,19.79972442,2.01901
10.62,44.25006,19.88974946,2.02819
10.64,44.33331,19.8100214,2.02006
10.66,44.41668,19.69802946,2.00864
10.68,44.49999,19.57809413,1.99641
10.7,44.58325,19.57721153,1.99632
10.72,44.66656,19.67459156,2.00625
10.74,44.74993,19.97565572,2.03695
10.76,44.83324,19.96104381,2.03546
10.78,44.91668,20.05489345,2.04503
10.8,45.00006,19.91877715,2.03115
10.82,45.08343,19.96947753,2.03632
10.84,45.16675,19.99683808,2.03911
10.86,45.25006,19.89416246,2.02864
10.88,45.33324,19.8088446,2.01994
10.9,45.41662,19.88327707,2.02753
10.92,45.49999,19.86788063,2.02596
10.94,45.58324,20.03949701,2.04346
10.96,45.66674,20.03753568,2.04326
10.98,45.75005,20.07980234,2.04757
11,45.83337,20.20542553,2.06038
11.02,45.91674,20.10373057,2.05001
11.04,46.00006,19.97212532,2.03659
11.06,46.0833,19.99301349,2.03872
11.08,46.16662,19.91573709,2.03084
11.1,46.24993,19.98428557,2.03783
11.12,46.33325,20.14413396,2.05413
11.14,46.41662,20.19110782,2.05892
11.16,46.49999,20.20513133,2.06035
11.18,46.58337,20.13570025,2.05327
11.2,46.66674,20.08902059,2.04851
11.22,46.75006,20.26436349,2.06639
11.24,46.83331,20.17012159,2.05678
11.26,46.91674,20.09039352,2.04865
11.28,47.00006,20.3381095,2.07391
11.3,47.08331,20.31202381,2.07125
11.32,47.16668,20.33075451,2.07316
11.34,47.24999,20.36782365,2.07694
11.36,47.33331,20.23729714,2.06363
11.38,47.41668,20.27358174,2.06733
11.4,47.50005,20.30888568,2.07093
11.42,47.58337,20.21562444,2.06142
11.44,47.66674,20.14923342,2.05465
11.46,47.75005,20.19218655,2.05903
11.48,47.8333,20.2403372,2.06394
11.5,47.91668,20.34213023,2.07432
11.52,47.99999,20.45304344,2.08563
11.54,48.08324,20.3401689,2.07412
11.56,48.16668,20.29623511,2.06964
11.58,48.24999,20.3773361,2.07791
11.6,48.3333,20.44490392,2.0848
11.62,48.41668,20.54042069,2.09454
11.64,48.49999,20.56876191,2.09743
11.66,48.5833,20.32045753,2.07211
11.68,48.66675,20.25632204,2.06557
11.7,48.74999,20.33703077,2.0738
11.72,48.83324,20.35723247,2.07586
11.74,48.91662,20.53649803,2.09414
11.76,48.99999,20.66486708,2.10723
11.78,49.08324,20.56111272,2.09665
11.8,49.16668,20.63907559,2.1046
11.82,49.25,20.74773327,2.11568
11.84,49.33331,20.55954366,2.09649
11.86,49.41668,20.57150777,2.09771
11.88,49.5,20.70370141,2.11119
11.9,49.58331,20.73527883,2.11441
11.92,49.66668,20.60288905,2.10091
11.94,49.74999,20.63750653,2.10444
11.96,49.83325,20.76116838,2.11705
11.98,49.91662,20.65535463,2.10626
12,49.99993,20.65388363,2.10611
12.02,50.08325,20.68928564,2.10972
