Time,Extension,Load,
(sec),(mm),(N),(kgf)
0,0,-1.076672104,-0.10979
0.02,0.01144,-0.872693784,-0.08899
0.04,0.06762,-0.547701403,-0.05585
0.06,0.16462,-0.289296175,-0.0295
0.08,0.27756,-0.163280723,-0.01665
0.1,0.38587,-0.261347223,-0.02665
0.12,0.483,-0.375986961,-0.03834
0.14,0.57112,-0.273899735,-0.02793
0.16,0.65537,-0.087279185,-0.0089
0.18,0.73937,0.185737951,0.01894
0.2,0.82406,0.410800569,0.04189
0.22,0.90937,0.476701257,0.04861
0.24,0.99475,0.726966965,0.07413
0.26,1.07956,0.857591543,0.08745
0.28,1.16387,0.966249225,0.09853
0.3,1.24794,1.277904562,0.13031
0.32,1.33169,1.352533168,0.13792
0.34,1.41537,1.463642513,0.14925
0.36,1.499,1.665365303,0.16982
0.38,1.58256,1.893075716,0.19304
0.4,1.666,1.984473694,0.20236
0.42,1.74944,2.184235155,0.22273
0.44,1.83287,2.152951941,0.21954
0.46,1.91631,2.214537703,0.22582
0.48,1.99981,2.26533615,0.231
0.5,2.08319,2.481278583,0.25302
0.52,2.16662,2.497165356,0.25464
0.54,2.25006,2.597585452,0.26488
0.56,2.33337,2.724777703,0.27785
0.58,2.41669,2.882076369,0.29389
0.6,2.5,3.036236907,0.30961
0.62,2.58325,3.072423445,0.3133
0.64,2.66656,3.127144552,0.31888
0.66,2.74994,3.32082589,0.33863
0.68,2.83331,3.502641181,0.35717
0.7,2.91662,3.636207754,0.37079
0.72,3.00006,3.640424613,0.37122
0.74,3.08337,3.790368292,0.38651
0.76,3.16669,3.836459547,0.39121
0.78,3.25006,3.923052266,0.40004
0.8,3.33331,4.002093865,0.4081
0.82,3.41662,4.175769637,0.42581
0.84,3.5,4.151645278,0.42335
0.86,3.58325,4.266579216,0.43507
0.88,3.66662,4.417013227,0.45041
0.9,3.75006,4.604516375,0.46953
0.92,3.83337,4.630013665,0.47213
0.94,3.91675,4.758873046,0.48527
0.96,4.00012,4.816143882,0.49111
0.98,4.08337,4.998253372,0.50968
1,4.16669,5.088572619,0.51889
1.02,4.25006,4.965204962,0.50631
1.04,4.33331,5.054053211,0.51537
1.06,4.41662,5.228611581,0.53317
1.08,4.5,5.311870039,0.54166
1.1,4.58331,5.515161894,0.56239
1.12,4.66669,5.512317965,0.5621
1.14,4.75012,5.658829316,0.57704
1.16,4.83344,5.770428993,0.58842
1.18,4.91669,5.801516074,0.59159
1.2,5.00012,5.973524715,0.60913
1.22,5.08337,6.070904749,0.61906
1.24,5.16662,6.070806683,0.61905
1.26,5.24994,6.090125783,0.62102
1.28,5.33325,6.100128566,0.62204
1.3,5.41656,6.37657803,0.65023
1.32,5.5,6.611153098,0.67415
1.34,5.58331,6.627530203,0.67582
1.36,5.66669,6.803559571,0.69377
1.38,5.75006,6.826703265,0.69613
1.4,5.83337,6.845532033,0.69805
1.42,5.91669,6.89603628,0.7032
1.44,6.00006,6.822584472,0.69571
1.46,6.08337,6.986845859,0.71246
1.48,6.16662,7.144732924,0.72856
1.5,6.25,7.118647235,0.7259
1.52,6.33331,7.253194473,0.73962
1.54,6.41662,7.383524852,0.75291
1.56,6.5,7.443051217,0.75898
1.58,6.58331,7.460212855,0.76073
1.6,6.66669,7.528859405,0.76773
1.62,6.75006,7.586914773,0.77365
1.64,6.83337,7.675174623,0.78265
1.66,6.91669,7.856303448,0.80112
1.68,7.00012,7.957998409,0.81149
1.7,7.08337,7.962705601,0.81197
1.72,7.16662,7.953095084,0.81099
1.74,7.25,8.07283428,0.8232
1.76,7.33325,8.342419089,0.85069
1.78,7.41656,8.277302933,0.84405
1.8,7.5,8.288482514,0.84519
1.82,7.58337,8.468924874,0.86359
1.84,7.66675,8.277793265,0.8441
1.86,7.75012,8.219639831,0.83817
1.88,7.83337,8.33006271,0.84943
1.9,7.91662,8.385862548,0.85512
1.92,8,8.535119761,0.87034
1.94,8.08319,8.63181333,0.8802
1.96,8.16656,8.665254007,0.88361
1.98,8.25006,8.721544178,0.88935
2,8.33344,9.001327902,0.91788
2.02,8.41675,9.140582332,0.93208
2.04,8.50019,9.154311642,0.93348
2.06,8.58337,9.254045273,0.94365
2.08,8.66656,9.098217604,0.92776
2.1,8.74994,9.073602913,0.92525
2.12,8.83319,9.152644512,0.93331
2.14,8.91656,9.242669559,0.94249
2.16,9,9.350346576,0.95347
2.18,9.08331,9.462534652,0.96491
2.2,9.16669,9.541282051,0.97294
2.22,9.25012,9.519413222,0.97071
2.24,9.33337,9.436547029,0.96226
2.26,9.41675,9.458121659,0.96446
2.28,9.50012,9.478029159,0.96649
2.3,9.58337,9.619342985,0.9809
2.32,9.66662,9.703974375,0.98953
2.34,9.75,9.85176059,1.0046
2.36,9.83325,9.989445956,1.01864
2.38,9.91656,9.885299333,1.00802
2.4,10,9.844307536,1.00384
2.42,10.08331,10.01376645,1.02112
2.44,10.16669,10.01886591,1.02164
2.46,10.25006,9.956397546,1.01527
2.48,10.33337,10.02700543,1.02247
2.5,10.41662,10.06142677,1.02598
2.52,10.5,10.28943138,1.04923
2.54,10.58325,10.39377414,1.05987
2.56,10.66656,10.14164516,1.03416
2.58,10.74994,10.05034525,1.02485
2.6,10.83331,10.31689,1.05203
2.62,10.91662,10.50282408,1.07099
2.64,11.00006,10.48272045,1.06894
2.66,11.08337,10.45859609,1.06648
2.68,11.16675,10.47418867,1.06807
2.7,11.25006,10.40416918,1.06093
2.72,11.33331,10.61824835,1.08276
2.74,11.41662,10.628055,1.08376
2.76,11.5,10.63570419,1.08454
2.78,11.58325,10.54862114,1.07566
2.8,11.66656,10.46555881,1.06719
2.82,11.75,10.74053728,1.09523
2.84,11.83337,10.90577933,1.11208
2.86,11.91669,10.94990926,1.11658
2.88,12.00012,10.91597825,1.11312
2.9,12.08344,10.95853911,1.11746
2.92,12.16669,10.90362187,1.11186
2.94,12.25006,10.88930416,1.1104
2.96,12.33331,10.9614811,1.11776
2.98,12.41662,11.05189842,1.12698
3,12.50006,10.99668698,1.12135
3.02,12.58331,11.09455734,1.13133
3.04,12.66669,11.28637542,1.15089
3.06,12.75006,11.34237139,1.1566
3.08,12.83337,11.27146931,1.14937
3.1,12.91669,11.11279771,1.13319
3.12,13.00006,11.08043577,1.12989
3.14,13.08337,11.18703405,1.14076
3.16,13.16662,11.30079119,1.15236
3.18,13.25,11.46515065,1.16912
3.2,13.33331,11.39287564,1.16175
3.22,13.41662,11.25146374,1.14733
3.24,13.50006,11.33021114,1.15536
3.26,13.58337,11.52487315,1.17521
3.28,13.66668,11.50751538,1.17344
3.3,13.75006,11.53771986,1.17652
3.32,13.83337,11.62244931,1.18516
3.34,13.91669,11.58587051,1.18143
3.36,14.00012,11.62352805,1.18527
3.38,14.08337,11.58694924,1.18154
3.4,14.16662,11.6128388,1.18418
3.42,14.25006,11.68030855,1.19106
3.44,14.33331,11.69992185,1.19306
3.46,14.41662,11.60646447,1.18353
3.48,14.50006,11.65961652,1.18895
3.5,14.58337,11.62539131,1.18546
3.52,14.66669,11.50329852,1.17301
3.54,14.75006,11.61891892,1.1848
3.56,14.83337,11.7870049,1.20194
3.58,14.91669,11.71561249,1.19466
3.6,15.00006,11.65353639,1.18833
3.62,15.08331,11.74915123,1.19808
3.64,15.16662,11.85869151,1.20925
3.66,15.25,11.86330064,1.20972
3.68,15.33331,11.79955741,1.20322
3.7,15.41669,11.8268199,1.206
3.72,15.50012,11.97794038,1.22141
3.74,15.58337,12.18721429,1.24275
3.76,15.66668,12.04040874,1.22778
3.78,15.75006,11.97136992,1.22074
3.8,15.83331,11.93439885,1.21697
3.82,15.91656,12.10670169,1.23454
3.84,15.99994,12.05668778,1.22944
3.86,16.08325,12.14788962,1.23874
3.88,16.16662,12.17358304,1.24136
3.9,16.25006,12.21222125,1.2453
3.92,16.33337,12.13543518,1.23747
3.94,16.41662,12.25272271,1.24943
3.96,16.50006,12.28233879,1.25245
3.98,16.58337,12.27390507,1.25159
4,16.66668,12.26998241,1.25119
4.02,16.75012,12.25144785,1.2493
4.04,16.83343,12.33715797,1.25804
4.06,16.91669,12.44414852,1.26895
4.08,17.00006,12.3765807,1.26206
4.1,17.08325,12.24536772,1.24868
4.12,17.1665,12.26704042,1.25089
4.14,17.24993,12.35618287,1.25998
4.16,17.33331,12.38638735,1.26306
4.18,17.41668,12.29038025,1.25327
4.2,17.50012,12.3754039,1.26194
4.22,17.58344,12.57369436,1.28216
4.24,17.66669,12.49837929,1.27448
4.26,17.75,12.3584384,1.26021
4.28,17.83331,12.36844118,1.26123
4.3,17.91656,12.40335285,1.26479
4.32,18,12.46758641,1.27134
4.34,18.08337,12.6511669,1.29006
4.36,18.16669,12.69588522,1.29462
4.38,18.25012,12.67999845,1.293
4.4,18.33337,12.65312823,1.29026
4.42,18.41668,12.63145553,1.28805
4.44,18.50006,12.66881887,1.29186
4.46,18.58331,12.72236318,1.29732
4.48,18.66662,12.6119403,1.28606
4.5,18.75,12.49965416,1.27461
4.52,18.83331,12.54044982,1.27877
4.54,18.91662,12.78130114,1.30333
4.56,19.00006,12.81915481,1.30719
4.58,19.08337,12.87367979,1.31275
4.6,19.16668,12.87632758,1.31302
4.62,19.25006,12.71363526,1.29643
4.64,19.33337,12.67087827,1.29207
4.66,19.41668,12.73570022,1.29868
4.68,19.5,12.77080803,1.30226
4.7,19.58331,12.65538376,1.29049
4.72,19.66662,12.81856641,1.30713
4.74,19.75,12.80424871,1.30567
4.76,19.83331,12.87750438,1.31314
4.78,19.91662,12.85171289,1.31051
4.8,20.00006,12.85749882,1.3111
4.82,20.08337,12.87456239,1.31284
4.84,20.16668,13.05039562,1.33077
4.86,20.25006,13.01646461,1.32731
4.88,20.33337,12.86122534,1.31148
4.9,20.41662,12.99861651,1.32549
4.92,20.5,13.06883212,1.33265
4.94,20.58331,13.05304342,1.33104
4.96,20.66662,13.05853514,1.3316
4.98,20.75,12.91594645,1.31706
5,20.83331,12.8288634,1.30818
5.02,20.91669,12.86357894,1.31172
5.04,21.00006,13.05539701,1.33128
5.06,21.08331,13.23819297,1.34992
5.08,21.16662,13.33567107,1.35986
5.1,21.25,13.3358672,1.35988
5.12,21.33325,13.17356714,1.34333
5.14,21.41656,13.20543876,1.34658
5.16,21.5,13.12296483,1.33817
5.18,21.58331,13.19112105,1.34512
5.2,21.66662,13.24662669,1.35078
5.22,21.75006,13.39264771,1.36567
5.24,21.83337,13.34077053,1.36038
5.26,21.91675,13.19112105,1.34512
5.28,22.00012,13.11335431,1.33719
5.3,22.08337,13.23466257,1.34956
5.32,22.16662,13.23623164,1.34972
5.34,22.25,13.2410369,1.35021
5.36,22.33325,13.21377441,1.34743
5.38,22.41656,13.32311856,1.35858
5.4,22.5,13.26682839,1.35284
5.42,22.58331,13.28604942,1.3548
5.44,22.66668,13.32988515,1.35927
5.46,22.75006,13.34037826,1.36034
5.48,22.83337,13.3361614,1.35991
5.5,22.91668,13.54259138,1.38096
5.52,23.00012,13.6288899,1.38976
5.54,23.08337,13.55465356,1.38219
5.56,23.16662,13.41079001,1.36752
5.58,23.25,13.3976491,1.36618
5.6,23.33325,13.54798504,1.38151
5.62,23.41656,13.48845868,1.37544
5.64,23.5,13.38323332,1.36471
5.66,23.58337,13.36352196,1.3627
5.68,23.66669,13.49198907,1.3758
5.7,23.75012,13.53837452,1.38053
5.72,23.83343,13.59044784,1.38584
5.74,23.91668,13.52758721,1.37943
5.76,24.00006,13.5917227,1.38597
5.78,24.08337,13.53788419,1.38048
5.8,24.16662,13.39068638,1.36547
5.82,24.25,13.43442403,1.36993
5.84,24.33325,13.64585541,1.39149
5.86,24.41662,13.7114619,1.39818
5.88,24.50006,13.77677419,1.40484
5.9,24.58343,13.82080604,1.40933
5.92,24.66675,13.82659197,1.40992
5.94,24.75012,13.73058486,1.40013
5.96,24.83337,13.66762617,1.39371
5.98,24.91656,13.60133322,1.38695
6,24.99993,13.58907491,1.3857
6.02,25.08325,13.69675192,1.39668
6.04,25.16662,13.67684442,1.39465
6.06,25.25006,13.74039151,1.40113
6.08,25.33343,13.81452979,1.40869
6.1,25.41681,13.74343158,1.40144
6.12,25.50012,13.73352686,1.40043
6.14,25.58331,13.85316799,1.41263
6.16,25.6665,13.76657527,1.4038
6.18,25.74987,13.83806575,1.41109
6.2,25.83318,13.98742103,1.42632
6.22,25.91656,14.06783556,1.43452
6.24,26,14.05940184,1.43366
6.26,26.08337,14.02870702,1.43053
6.28,26.16668,14.02772636,1.43043
6.3,26.25012,13.89415979,1.41681
6.32,26.33337,13.81776598,1.40902
6.34,26.41669,13.92230487,1.41968
6.36,26.50006,13.93044439,1.42051
6.38,26.58337,14.05645984,1.43336
6.4,26.66662,13.9848713,1.42606
6.42,26.75,14.01693904,1.42933
6.44,26.83331,14.16953052,1.44489
6.46,26.91662,14.28397412,1.45656
6.48,27,14.17541451,1.44549
6.5,27.08337,14.18492696,1.44646
6.52,27.16668,14.04380927,1.43207
6.54,27.25006,14.05077199,1.43278
6.56,27.33337,14.16600012,1.44453
6.58,27.41668,14.4145987,1.46988
6.6,27.50006,14.28681805,1.45685
6.62,27.58331,14.22179996,1.45022
6.64,27.66662,14.23454861,1.45152
6.66,27.75006,14.20875712,1.44889
6.68,27.83331,14.23994227,1.45207
6.7,27.91668,14.17610097,1.44556
6.72,28.00006,14.20610932,1.44862
6.74,28.08337,14.33349771,1.46161
6.76,28.16668,14.24955278,1.45305
6.78,28.25006,14.19581234,1.44757
6.8,28.33337,14.35850466,1.46416
6.82,28.41662,14.37782376,1.46613
6.84,28.5,14.33800877,1.46207
6.86,28.58331,14.52806164,1.48145
6.88,28.66662,14.54414455,1.48309
6.9,28.75006,14.36791905,1.46512
6.92,28.83337,14.38360969,1.46672
6.94,28.91668,14.52453125,1.48109
6.96,29.00006,14.53777023,1.48244
6.98,29.08337,14.5940604,1.48818
7,29.16669,14.44656838,1.47314
7.02,29.25006,14.39223954,1.4676
7.04,29.33337,14.49050217,1.47762
7.06,29.41662,14.62603008,1.49144
7.08,29.5,14.51698013,1.48032
7.1,29.58331,14.42224789,1.47066
7.12,29.66662,14.43823273,1.47229
7.14,29.75,14.46745655,1.47527
7.16,29.83337,14.51815693,1.48044
7.18,29.91668,14.61828282,1.49065
7.2,30.00006,14.66211855,1.49512
7.22,30.08337,14.67388653,1.49632
7.24,30.16668,14.60063085,1.48885
7.26,30.25006,14.53806443,1.48247
7.28,30.33331,14.60308252,1.4891
7.3,30.41662,14.60622064,1.48942
7.32,30.50006,14.6540771,1.4943
7.34,30.58331,14.71154406,1.50016
7.36,30.66662,14.74625961,1.5037
7.38,30.75006,14.6098491,1.48979
7.4,30.83337,14.56787664,1.48551
7.42,30.91668,14.60847617,1.48965
7.44,31.00006,14.63044307,1.49189
7.46,31.08331,14.66182435,1.49509
7.48,31.16662,14.74331761,1.5034
7.5,31.25,14.67643626,1.49658
7.52,31.33325,14.91797405,1.52121
7.54,31.41662,14.76459804,1.50557
7.56,31.50006,14.61465436,1.49028
7.58,31.58337,14.66819867,1.49574
7.6,31.66668,14.97436228,1.52696
7.62,31.75012,14.84108991,1.51337
7.64,31.83337,14.70232581,1.49922
7.66,31.91662,14.9257213,1.522
7.68,31.99999,14.9441578,1.52388
7.7,32.08324,14.85687862,1.51498
7.72,32.16656,14.80176524,1.50936
7.74,32.24999,14.91356105,1.52076
7.76,32.33331,14.96906669,1.52642
7.78,32.41668,15.04006684,1.53366
7.8,32.50012,15.19501191,1.54946
7.82,32.58343,15.23365011,1.5534
7.84,32.66668,15.13685847,1.54353
7.86,32.75,15.04761796,1.53443
7.88,32.83324,14.92444644,1.52187
7.9,32.91656,14.81059123,1.51026
7.92,33,14.86962726,1.51628
7.94,33.08331,15.13224935,1.54306
7.96,33.16668,15.1599041,1.54588
7.98,33.25012,15.09037495,1.53879
8,33.33337,14.93023236,1.52246
8.02,33.41668,15.04977542,1.53465
8.04,33.50006,15.31210331,1.5614
8.06,33.58337,15.39153718,1.5695
8.08,33.66668,15.32485196,1.5627
8.1,33.75012,15.09645508,1.53941
8.12,33.83337,15.07890117,1.53762
8.14,33.91668,15.27111151,1.55722
8.16,34.00006,15.3349528,1.56373
8.18,34.08331,15.3364238,1.56388
8.2,34.16656,15.30268893,1.56044
8.22,34.25,15.30631739,1.56081
8.24,34.33331,15.44164916,1.57461
8.26,34.41668,15.33897353,1.56414
8.28,34.50006,15.3001392,1.56018
8.3,34.58337,15.36211723,1.5665
8.32,34.66662,15.30925938,1.56111
8.34,34.75,15.33809093,1.56405
8.36,34.83331,15.35338931,1.56561
8.38,34.91662,15.50843244,1.58142
8.4,34.99999,15.54157892,1.5848
8.42,35.08331,15.49833159,1.58039
8.44,35.16668,15.42988118,1.57341
8.46,35.25006,15.57943259,1.58866
8.48,35.33337,15.52422115,1.58303
8.5,35.41662,15.48930948,1.57947
8.52,35.49999,15.5729602,1.588
8.54,35.58331,15.61934565,1.59273
8.56,35.66662,15.76252274,1.60733
8.58,35.75,15.72712074,1.60372
8.6,35.83324,15.5729602,1.588
8.62,35.91656,15.54412865,1.58506
8.64,35.99999,15.45861466,1.57634
8.66,36.08337,15.50764791,1.58134
8.68,36.16668,15.56717428,1.58741
8.7,36.25006,15.61718819,1.59251
8.72,36.33337,15.7281014,1.60382
8.74,36.41668,15.85745112,1.61701
8.76,36.50006,15.92933386,1.62434
8.78,36.58331,15.75477549,1.60654
8.8,36.66662,15.58884697,1.58962
8.82,36.74999,15.58757211,1.58949
8.84,36.83331,15.74810697,1.60586
8.86,36.91662,15.96797206,1.62828
8.88,37.00006,16.081435,1.63985
8.9,37.08337,16.09173199,1.6409
8.92,37.16668,15.96385327,1.62786
8.94,37.25012,15.97473865,1.62897
8.96,37.33337,16.01190585,1.63276
8.98,37.41662,15.97650385,1.62915
9,37.49999,15.93002033,1.62441
9.02,37.58331,16.11752347,1.64353
9.04,37.66656,16.0454446,1.63618
9.06,37.74999,15.90805343,1.62217
9.08,37.83337,15.9827801,1.62979
9.1,37.91668,15.95051623,1.6265
9.12,38.00012,16.02818489,1.63442
9.14,38.08337,16.06466563,1.63814
9.16,38.16668,16.02455643,1.63405
9.18,38.25,16.00965032,1.63253
9.2,38.33324,15.95316402,1.62677
9.22,38.41662,16.08545573,1.64026
9.24,38.5,16.17910924,1.64981
9.26,38.58331,16.17459818,1.64935
9.28,38.66668,15.93511978,1.62493
9.3,38.75012,15.89530479,1.62087
9.32,38.83343,16.08780933,1.6405
9.34,38.91675,16.13645031,1.64546
9.36,39.00012,16.25099198,1.65714
9.38,39.08331,16.32159986,1.66434
9.4,39.16656,16.16665479,1.64854
9.42,39.24993,16.09722371,1.64146
9.44,39.33324,16.0023934,1.63179
9.46,39.41662,16.06731343,1.63841
9.48,39.50006,16.15125835,1.64697
9.5,39.58337,16.43408214,1.67581
9.52,39.66668,16.4145669,1.67382
9.54,39.75012,16.34366482,1.66659
9.56,39.83337,16.37808617,1.6701
9.58,39.91668,16.42152962,1.67453
9.6,40.00005,16.33395624,1.6656
9.62,40.08331,16.24971712,1.65701
9.64,40.16655,16.28051,1.66015
9.66,40.24993,16.35935546,1.66819
9.68,40.33324,16.43045368,1.67544
9.7,40.41662,16.44732111,1.67716
9.72,40.50006,16.49439303,1.68196
9.74,40.58337,16.6522801,1.69806
9.76,40.66668,16.69523323,1.70244
9.78,40.75006,16.52263619,1.68484
9.8,40.83337,16.46026589,1.67848
9.82,40.91668,16.6493381,1.69776
9.84,41.00006,16.81232463,1.71438
9.86,41.08331,16.81232463,1.71438
9.88,41.16655,16.48929358,1.68144
9.9,41.24993,16.51753673,1.68432
9.92,41.33324,16.5922634,1.69194
9.94,41.41662,16.69395836,1.70231
9.96,41.50006,16.67993485,1.70088
9.98,41.58337,16.75024853,1.70805
10,41.66674,16.62148722,1.69492
10.02,41.75012,16.64874971,1.6977
10.04,41.83331,16.68415171,1.70131
10.06,41.91656,16.6707166,1.69994
10.08,41.99999,16.75544606,1.70858
10.1,42.08331,16.89666182,1.72298
10.12,42.16668,16.93275029,1.72666
10.14,42.25012,16.97952801,1.73143
10.16,42.33343,16.94138014,1.72754
10.18,42.41674,16.90656653,1.72399
10.2,42.50005,16.93304449,1.72669
10.22,42.5833,16.88685517,1.72198
10.24,42.66656,16.88371704,1.72166
10.26,42.74993,17.05964834,1.7396
10.28,42.83324,17.04768423,1.73838
10.3,42.91662,16.97599762,1.73107
10.32,43.00006,16.82693654,1.71587
10.34,43.0833,16.80477351,1.71361
10.36,43.16668,16.71563106,1.70452
10.38,43.25012,17.09495228,1.7432
10.4,43.33337,17.20106023,1.75402
10.42,43.41668,17.1426126,1.74806
10.44,43.50012,17.04886103,1.7385
10.46,43.58337,16.98619653,1.73211
10.48,43.66668,17.03395492,1.73698
10.5,43.75006,17.03199359,1.73678
10.52,43.83331,16.98188161,1.73167
10.54,43.91662,16.87224326,1.72049
10.56,44.00006,17.08838182,1.74253
10.58,44.08337,17.0629826,1.73994
10.6,44.16668,17.00424077,1.73395
10.62,44.25012,17.12986395,1.74676
10.64,44.33337,17.40248882,1.77456
10.66,44.41668,17.38493492,1.77277
10.68,44.50005,17.3981739,1.77412
10.7,44.58331,17.45269887,1.77968
10.72,44.66656,17.46044613,1.78047
10.74,44.74999,17.32854668,1.76702
10.76,44.83331,17.28961428,1.76305
10.78,44.91662,17.06317873,1.73996
10.8,45.00006,17.0615116,1.73979
10.82,45.08337,17.19331298,1.75323
10.84,45.16668,17.28500516,1.76258
10.86,45.25006,17.36581195,1.77082
10.88,45.3333,17.46887984,1.78133
10.9,45.41662,17.36777328,1.77102
10.92,45.49999,17.31393477,1.76553
10.94,45.58324,17.40170429,1.77448
10.96,45.66655,17.45534667,1.77995
10.98,45.75,17.46593785,1.78103
11,45.83337,17.39032858,1.77332
11.02,45.91668,17.63431803,1.7982
11.04,46.00012,17.76484454,1.81151
11.06,46.08337,17.81750625,1.81688
11.08,46.16668,17.59185524,1.79387
11.1,46.24999,17.53615346,1.78819
11.12,46.3333,17.59715083,1.79441
11.14,46.41656,17.55086344,1.78969
11.16,46.49993,17.56675021,1.79131
11.18,46.58324,17.65814819,1.80063
11.2,46.66662,17.58714804,1.79339
11.22,46.75006,17.5556687,1.79018
11.24,46.83337,17.76209868,1.81123
11.26,46.91668,17.9075313,1.82606
11.28,47.00006,17.99157429,1.83463
11.3,47.08337,17.95460322,1.83086
11.32,47.16668,17.76190255,1.81121
11.34,47.25005,17.75680309,1.81069
11.36,47.33337,17.62666884,1.79742
11.38,47.41662,17.67354463,1.8022
11.4,47.50005,17.67609436,1.80246
11.42,47.58337,17.66687611,1.80152
11.44,47.66668,17.62500171,1.79725
11.46,47.75012,17.75994122,1.81101
11.48,47.83337,17.88281854,1.82354
11.5,47.91668,17.89409619,1.82469
11.52,48.00005,18.06041697,1.84165
11.54,48.0833,18.03737135,1.8393
11.56,48.16662,17.88164174,1.82342
11.58,48.24999,17.87575775,1.82282
11.6,48.33337,17.96950933,1.83238
11.62,48.41668,17.9054719,1.82585
11.64,48.50012,17.89635172,1.82492
11.66,48.58343,17.93087113,1.82844
11.68,48.66675,17.99196656,1.83467
11.7,48.75006,18.07620568,1.84326
11.72,48.83337,18.0667913,1.8423
11.74,48.91662,18.05100259,1.84069
11.76,48.99999,18.07375402,1.84301
11.78,49.08324,17.96715573,1.83214
11.8,49.16662,18.04198047,1.83977
11.82,49.25005,18.08973886,1.84464
11.84,49.33337,18.02707436,1.83825
11.86,49.41668,18.11003862,1.84671
11.88,49.50012,18.29459977,1.86553
11.9,49.58343,18.23634827,1.85959
11.92,49.66662,18.19143382,1.85501
11.94,49.74993,18.23644634,1.8596
11.96,49.83325,18.23929027,1.85989
11.98,49.91656,18.34530016,1.8707
