Time,Extension,Load
(sec),(mm),(N)
0.00000,0.00000,-0.10674
0.10000,0.07587,0.22028
0.20000,0.16469,0.65574
0.30000,0.24925,0.71146
0.40000,0.33306,1.22914
0.50000,0.41675,1.15089
0.60000,0.49994,1.49506
0.70000,0.58337,1.55734
0.80000,0.66669,1.69523
0.90000,0.74994,2.04327
1.00000,0.83337,2.07257
1.10000,0.91675,2.33007
1.20000,0.99994,2.39156
1.30000,1.08337,2.67586
1.40000,1.16675,2.59070
1.50000,1.24987,2.67478
1.60000,1.33331,2.95746
1.70000,1.41669,3.04292
1.80000,1.49994,3.20148
1.90000,1.58331,3.18497
2.00000,1.66669,3.33280
2.10000,1.75000,3.70216
2.20000,1.83344,3.48749
2.30000,1.91675,3.75175
2.40000,1.99994,3.82226
2.50000,2.08337,3.91252
2.60000,2.16662,4.18216
2.70000,2.24987,4.03257
2.80000,2.33337,4.09779
2.90000,2.41675,4.49944
3.00000,2.49994,4.54025
3.10000,2.58337,4.55187
3.20000,2.66675,4.64742
3.30000,2.74994,4.77570
3.40000,2.83337,4.84484
3.50000,2.91681,4.99488
3.60000,2.99994,5.05897
3.70000,3.08331,5.04794
3.80000,3.16675,5.03128
3.90000,3.24981,5.17421
4.00000,3.33337,5.61365
4.10000,3.41669,5.48154
4.20000,3.49987,5.43333
4.30000,3.58337,5.64780
4.40000,3.66681,5.58086
4.50000,3.74994,5.91049
4.60000,3.83337,5.94689
4.70000,3.91675,5.82626
4.80000,3.99994,5.93146
4.90000,4.08331,5.94488
5.00000,4.16669,6.12511
5.10000,4.24994,6.23986
5.20000,4.33337,6.35305
5.30000,4.41675,6.45953
5.40000,4.49994,6.52813
5.50000,4.58337,6.54126
5.60000,4.66675,6.63632
5.70000,4.75000,6.49378
5.80000,4.83325,6.61138
5.90000,4.91675,6.90224
6.00000,4.99994,6.85128
6.10000,5.08331,6.83771
6.20000,5.16675,6.93106
6.30000,5.24994,7.06453
6.40000,5.33331,7.12784
6.50000,5.41675,7.17228
6.60000,5.50000,7.15028
6.70000,5.58337,7.30973
6.80000,5.66675,7.18546
6.90000,5.74994,7.49058
7.00000,5.83331,7.51817
7.10000,5.91669,7.48005
7.20000,5.99994,7.49156
7.30000,6.08331,7.70903
7.40000,6.16675,7.64787
7.50000,6.24994,7.77821
7.60000,6.33337,7.50528
7.70000,6.41669,7.86901
7.80000,6.49994,7.71348
7.90000,6.58331,8.06192
8.00000,6.66675,8.16664
8.10000,6.74994,8.11396
8.20000,6.83331,8.06491
8.30000,6.91669,8.15855
8.40000,6.99987,8.26733
8.50000,7.08337,8.13748
8.60000,7.16675,8.28517
8.70000,7.24994,8.41467
8.80000,7.33337,8.39644
8.90000,7.41675,8.56035
9.00000,7.49994,8.60572
9.10000,7.58331,8.54736
9.20000,7.66669,8.63605
9.30000,7.74987,8.88135
9.40000,7.83325,8.82465
9.50000,7.91675,8.81079
9.60000,7.99987,8.83019
9.70000,8.08344,8.80496
9.80000,8.16681,9.09945
9.90000,8.25000,9.12703
10.00000,8.33337,8.96866
10.10000,8.41675,9.14306
10.20000,8.49981,9.04020
10.30000,8.58325,9.27193
10.40000,8.66669,9.14095
10.50000,8.74987,9.18559
10.60000,8.83331,9.21822
10.70000,8.91681,9.22567
10.80000,8.99987,9.43612
10.90000,9.08337,9.40873
11.00000,9.16675,9.41726
11.10000,9.24994,9.59694
11.20000,9.33337,9.52790
11.30000,9.41675,9.63786
11.40000,9.49994,9.62732
11.50000,9.58325,9.80328
11.60000,9.66669,9.60993
11.70000,9.74987,9.58023
11.80000,9.83337,9.99639
11.90000,9.91675,9.88232
12.00000,10.00000,9.51359
12.10000,10.08337,9.84120
12.20000,10.16675,9.80808
12.30000,10.24994,10.01315
12.40000,10.33337,10.21096
12.50000,10.41675,10.04544
12.60000,10.49994,10.01011
12.70000,10.58331,10.28264
12.80000,10.66662,10.10272
12.90000,10.74994,10.09429
13.00000,10.83337,10.11629
13.10000,10.91675,10.05886
13.20000,10.99994,10.42156
13.30000,11.08337,10.25692
13.40000,11.16669,10.52333
13.50000,11.24994,10.53735
13.60000,11.33331,10.49330
13.70000,11.41675,10.41715
13.80000,11.49987,10.45380
13.90000,11.58337,10.73526
14.00000,11.66675,10.58811
14.10000,11.74994,10.62266
14.20000,11.83337,10.68577
14.30000,11.91675,10.87525
14.40000,11.99987,10.82532
14.50000,12.08331,10.67910
14.60000,12.16669,10.81542
14.70000,12.24987,10.86197
14.80000,12.33337,10.86525
14.90000,12.41675,10.85888
15.00000,12.49994,11.04631
15.10000,12.58337,10.73457
15.20000,12.66675,10.83394
15.30000,12.74987,10.91048
15.40000,12.83331,11.05170
15.50000,12.91675,11.22050
15.60000,12.99994,10.95688
15.70000,13.08331,11.04449
15.80000,13.16675,11.32085
15.90000,13.24987,11.38509
16.00000,13.33331,10.98648
16.10000,13.41675,11.25113
16.20000,13.49994,11.31385
16.30000,13.58331,11.39773
16.40000,13.66675,11.29077
16.50000,13.74987,11.56188
16.60000,13.83331,11.54611
16.70000,13.91675,11.63705
16.80000,13.99987,11.62044
16.90000,14.08331,11.58364
17.00000,14.16675,11.67272
17.10000,14.24994,11.73529
17.20000,14.33331,11.64959
17.30000,14.41675,11.63930
17.40000,14.50000,11.64146
17.50000,14.58331,11.77111
17.60000,14.66675,11.76249
17.70000,14.74994,11.71119
17.80000,14.83331,11.74794
17.90000,14.91669,11.85030
18.00000,14.99994,11.95658
18.10000,15.08331,11.73407
18.20000,15.16675,11.79346
18.30000,15.24994,11.95320
18.40000,15.33331,12.25954
18.50000,15.41675,11.98015
18.60000,15.50000,12.14092
18.70000,15.58337,12.21201
18.80000,15.66675,12.11862
18.90000,15.74987,12.19658
19.00000,15.83337,12.04571
19.10000,15.91668,11.98608
19.20000,15.99994,12.13896
19.30000,16.08337,12.26719
19.40000,16.16675,12.29649
19.50000,16.25000,12.05100
19.60000,16.33337,12.19903
19.70000,16.41675,12.07305
19.80000,16.49987,12.34137
19.90000,16.58331,12.27914
20.00000,16.66681,12.17904
20.10000,16.74994,12.42761
20.20000,16.83337,12.34010
20.30000,16.91675,12.35328
20.40000,16.99987,12.56859
20.50000,17.08331,12.59705
20.60000,17.16669,12.50792
20.70000,17.24993,12.53482
20.80000,17.33337,12.57574
20.90000,17.41681,12.79835
21.00000,17.49994,12.50954
21.10000,17.58331,12.72053
21.20000,17.66669,12.57579
21.30000,17.74987,12.65840
21.40000,17.83337,12.68604
21.50000,17.91675,12.50572
21.60000,17.99993,12.79643
21.70000,18.08331,12.84514
21.80000,18.16675,12.89311
21.90000,18.24987,12.85220
22.00000,18.33331,12.83637
22.10000,18.41668,12.88875
22.20000,18.49987,12.66536
22.30000,18.58331,12.89345
22.40000,18.66681,13.00302
22.50000,18.74994,12.88145
22.60000,18.83337,13.04780
22.70000,18.91675,12.94270
22.80000,18.99993,13.00905
22.90000,19.08331,12.97313
23.00000,19.16662,13.04785
23.10000,19.24987,12.89880
23.20000,19.33331,12.97710
23.30000,19.41675,13.19951
23.40000,19.50000,13.01561
23.50000,19.58337,13.10102
23.60000,19.66669,13.11704
23.70000,19.74993,13.27310
23.80000,19.83331,13.13899
23.90000,19.91675,13.14032
24.00000,19.99993,13.16991
24.10000,20.08331,13.40683
24.20000,20.16675,13.07637
24.30000,20.24994,13.35400
24.40000,20.33331,13.22151
24.50000,20.41668,13.31544
24.60000,20.49993,13.31534
24.70000,20.58337,13.36170
24.80000,20.66675,13.33259
24.90000,20.74993,13.38566
25.00000,20.83337,13.26757
25.10000,20.91669,13.36542
25.20000,20.99993,13.47797
25.30000,21.08337,13.60224
25.40000,21.16675,13.27075
25.50000,21.24987,13.61556
25.60000,21.33331,13.57847
25.70000,21.41675,13.47846
25.80000,21.49994,13.66613
25.90000,21.58331,13.65432
26.00000,21.66675,13.54701
26.10000,21.74993,13.64751
26.20000,21.83337,13.66114
26.30000,21.91668,13.65388
26.40000,21.99987,13.71381
26.50000,22.08331,13.72944
26.60000,22.16668,13.49806
26.70000,22.24993,13.64487
26.80000,22.33331,13.73846
26.90000,22.41681,13.96273
27.00000,22.49993,13.74316
27.10000,22.58337,13.95984
27.20000,22.66675,13.91716
27.30000,22.74993,13.87551
27.40000,22.83325,13.72273
27.50000,22.91668,13.89942
27.60000,22.99994,13.85645
27.70000,23.08331,14.07847
27.80000,23.16675,14.03951
27.90000,23.24993,13.98130
28.00000,23.33337,13.79750
28.10000,23.41675,13.92882
28.20000,23.49993,13.97263
28.30000,23.58337,14.07709
28.40000,23.66675,14.05161
28.50000,23.74987,14.24188
28.60000,23.83331,13.99144
28.70000,23.91662,14.25849
28.80000,23.99987,14.02726
28.90000,24.08331,14.13016
29.00000,24.16675,14.13315
29.10000,24.25000,14.15682
29.20000,24.33337,14.01555
29.30000,24.41674,14.16539
29.40000,24.49993,14.25104
29.50000,24.58325,14.21238
29.60000,24.66668,14.51143
29.70000,24.74987,14.26942
29.80000,24.83331,14.14417
29.90000,24.91675,14.28211
30.00000,24.99999,14.29897
30.10000,25.08337,14.40074
30.20000,25.16675,14.23703
30.30000,25.25000,14.24918
30.40000,25.33331,14.37075
30.50000,25.41675,14.47733
30.60000,25.49981,14.47782
30.70000,25.58331,14.35488
30.80000,25.66668,14.36188
30.90000,25.74987,14.46140
31.00000,25.83344,14.40407
31.10000,25.91675,14.58875
31.20000,25.99993,14.65172
31.30000,26.08337,14.56690
31.40000,26.16675,14.65069
31.50000,26.25000,14.44376
31.60000,26.33331,14.50187
31.70000,26.41669,14.44891
31.80000,26.49987,14.76564
31.90000,26.58331,14.76167
32.00000,26.66668,14.71703
32.10000,26.74993,14.54382
32.20000,26.83337,14.84443
32.30000,26.91675,14.55871
32.40000,26.99994,14.79009
32.50000,27.08331,14.65226
32.60000,27.16674,14.85164
32.70000,27.24993,14.81601
32.80000,27.33337,14.64050
32.90000,27.41675,14.71218
33.00000,27.49993,14.84492
33.10000,27.58331,14.72806
33.20000,27.66668,14.86070
33.30000,27.74993,15.01015
33.40000,27.83337,14.95120
33.50000,27.91675,14.93988
33.60000,28.00000,15.09732
33.70000,28.08337,15.10124
33.80000,28.16675,14.85923
33.90000,28.24987,15.00897
34.00000,28.33331,14.96228
34.10000,28.41675,14.96453
34.20000,28.49987,15.01755
34.30000,28.58337,15.22923
34.40000,28.66675,15.13069
34.50000,28.75000,14.89985
34.60000,28.83331,14.97918
34.70000,28.91675,15.12275
34.80000,28.99987,15.10526
34.90000,29.08331,15.14676
35.00000,29.16669,15.06258
35.10000,29.24993,15.41200
35.20000,29.33337,15.23594
35.30000,29.41681,15.05175
35.40000,29.49993,15.34271
35.50000,29.58337,15.25437
35.60000,29.66675,15.27828
35.70000,29.74994,15.41807
35.80000,29.83331,15.17827
35.90000,29.91674,15.31424
36.00000,29.99993,15.22394
36.10000,30.08331,15.24520
36.20000,30.16675,15.54479
36.30000,30.24987,15.42856
36.40000,30.33337,15.43767
36.50000,30.41675,15.23854
36.60000,30.49999,15.43792
36.70000,30.58337,15.59869
36.80000,30.66675,15.49554
36.90000,30.74993,15.67655
37.00000,30.83331,15.61726
37.10000,30.91668,15.66988
37.20000,30.99993,15.55459
37.30000,31.08331,15.53107
37.40000,31.16681,15.50426
37.50000,31.24993,15.72829
37.60000,31.33337,15.68914
37.70000,31.41674,15.51999
37.80000,31.49993,15.72589
37.90000,31.58331,15.50417
38.00000,31.66674,15.70222
38.10000,31.74993,15.70428
38.20000,31.83331,15.57855
38.30000,31.91675,15.89004
38.40000,31.99987,15.78391
38.50000,32.08331,15.93703
38.60000,32.16675,15.71183
38.70000,32.24999,15.98961
38.80000,32.33337,15.75931
38.90000,32.41675,15.80610
39.00000,32.49993,15.79033
39.10000,32.58331,15.83560
39.20000,32.66668,16.14249
39.30000,32.74987,16.03763
39.40000,32.83331,15.87171
39.50000,32.91674,15.89852
39.60000,33.00000,15.90165
39.70000,33.08337,16.06742
39.80000,33.16681,16.03939
39.90000,33.24993,16.07786
40.00000,33.33337,15.86030
40.10000,33.41668,16.05414
40.20000,33.49993,15.94791
40.30000,33.58337,16.00421
40.40000,33.66675,15.89112
40.50000,33.74993,16.16052
40.60000,33.83337,16.11255
40.70000,33.91668,16.23637
40.80000,33.99981,16.33653
40.90000,34.08331,16.23314
41.00000,34.16675,16.07962
41.10000,34.24987,16.25906
41.20000,34.33343,16.58652
41.30000,34.41668,16.54953
41.40000,34.49987,16.24975
41.50000,34.58331,16.45290
41.60000,34.66668,16.38651
41.70000,34.74993,16.14548
41.80000,34.83337,16.36201
41.90000,34.91681,16.47412
42.00000,34.99987,16.29978
42.10000,35.08331,16.39974
42.20000,35.16668,16.33819
42.30000,35.24993,16.35946
42.40000,35.33331,16.48304
42.50000,35.41674,16.42674
42.60000,35.49987,16.43899
42.70000,35.58331,16.49676
42.80000,35.66681,16.61597
42.90000,35.75000,16.61607
43.00000,35.83337,16.55859
43.10000,35.91675,16.48093
43.20000,35.99987,16.57800
43.30000,36.08324,16.56629
43.40000,36.16675,16.59231
43.50000,36.24987,16.81609
43.60000,36.33331,16.56516
43.70000,36.41674,16.66517
43.80000,36.49993,16.55649
43.90000,36.58331,16.53115
44.00000,36.66674,16.76091
44.10000,36.74993,16.83598
44.20000,36.83337,16.54032
44.30000,36.91674,16.75489
44.40000,36.99993,16.87567
44.50000,37.08331,16.78198
44.60000,37.16668,16.84196
44.70000,37.24987,16.94961
44.80000,37.33331,16.91149
44.90000,37.41675,16.85563
45.00000,37.49993,16.92766
45.10000,37.58331,17.04036
45.20000,37.66675,17.00258
45.30000,37.74993,16.99778
45.40000,37.83331,16.99107
45.50000,37.91675,16.90395
45.60000,37.99993,17.07221
45.70000,38.08331,17.09960
45.80000,38.16668,17.19167
45.90000,38.24987,17.14086
46.00000,38.33331,17.09539
46.10000,38.41674,17.25106
46.20000,38.49993,17.10431
46.30000,38.58337,17.43020
46.40000,38.66674,17.25684
46.50000,38.74987,17.35225
46.60000,38.83331,17.10636
46.70000,38.91668,17.14174
46.80000,38.99987,17.30687
46.90000,39.08331,17.23665
47.00000,39.16668,17.39835
47.10000,39.24993,17.22519
47.20000,39.33343,17.39252
47.30000,39.41674,17.58054
47.40000,39.49993,17.25865
47.50000,39.58330,17.40791
47.60000,39.66675,17.51659
47.70000,39.74987,17.40580
47.80000,39.83330,17.37229
47.90000,39.91674,17.48205
48.00000,39.99987,17.52335
48.10000,40.08331,17.54040
48.20000,40.16674,17.61239
48.30000,40.24987,17.48263
48.40000,40.33331,17.54761
48.50000,40.41674,17.62169
48.60000,40.49993,17.52492
48.70000,40.58337,17.49861
48.80000,40.66675,17.58607
48.90000,40.74987,17.69769
49.00000,40.83330,17.81206
49.10000,40.91674,17.77992
49.20000,40.99987,17.73920
49.30000,41.08337,17.94274
49.40000,41.16681,17.90815
49.50000,41.24993,17.83411
49.60000,41.33331,17.73194
49.70000,41.41668,17.73273
49.80000,41.49993,17.66447
49.90000,41.58324,17.97033
50.00000,41.66674,18.09547
50.10000,41.74993,17.79452
50.20000,41.83337,17.83480
50.30000,41.91674,17.86356
50.40000,41.99993,18.00238
50.50000,42.08343,18.04255
50.60000,42.16681,18.14149
50.70000,42.24993,18.19098
50.80000,42.33337,18.02864
50.90000,42.41674,18.00384
51.00000,42.49993,18.02977
51.10000,42.58330,18.32058
51.20000,42.66674,18.18020
51.30000,42.74987,18.23385
51.40000,42.83337,18.23076
51.50000,42.91675,18.19975
51.60000,42.99993,18.04133
51.70000,43.08337,18.23669
51.80000,43.16675,18.16197
51.90000,43.24993,18.31715
52.00000,43.33337,18.36198
52.10000,43.41675,18.35640
52.20000,43.49981,18.47268
52.30000,43.58331,18.52579
52.40000,43.66674,18.28324
52.50000,43.74993,18.34464
52.60000,43.83331,18.61174
52.70000,43.91674,18.66564
52.80000,43.99993,18.28628
52.90000,44.08337,18.33856
53.00000,44.16674,18.32337
53.10000,44.24993,18.64300
53.20000,44.33337,18.33886
53.30000,44.41674,18.56038
53.40000,44.49987,18.71474
53.50000,44.58318,18.60973
53.60000,44.66674,18.72939
53.70000,44.74987,18.55000
53.80000,44.83337,18.61659
53.90000,44.91681,18.66921
54.00000,44.99999,18.61796
54.10000,45.08330,18.95459
54.20000,45.16668,18.88138
54.30000,45.24987,18.73811
54.40000,45.33330,18.69376
54.50000,45.41674,18.84757
54.60000,45.49993,18.82993
54.70000,45.58337,18.95341
54.80000,45.66681,19.05122
54.90000,45.74993,18.93367
55.00000,45.83331,18.94704
55.10000,45.91674,18.77074
55.20000,45.99987,19.05768
55.30000,46.08330,18.99800
55.40000,46.16668,19.06430
55.50000,46.24993,18.99041
55.60000,46.33330,18.90833
55.70000,46.41674,19.21527
55.80000,46.49993,19.17646
55.90000,46.58337,19.24207
56.00000,46.66674,19.10600
56.10000,46.74993,19.13491
56.20000,46.83331,19.01329
56.30000,46.91680,19.19645
56.40000,46.99986,19.28279
56.50000,47.08331,19.16343
56.60000,47.16674,19.34022
56.70000,47.24993,19.22963
56.80000,47.33331,19.36295
56.90000,47.41680,19.42288
57.00000,47.49993,19.21674
57.10000,47.58331,19.40656
57.20000,47.66668,19.25226
57.30000,47.74987,19.30553
57.40000,47.83330,19.15402
57.50000,47.91668,19.42709
57.60000,47.99993,19.37055
57.70000,48.08330,19.49682
57.80000,48.16674,19.68768
57.90000,48.24993,19.76867
58.00000,48.33330,19.48129
58.10000,48.41674,19.49917
58.20000,48.49993,19.49158
58.30000,48.58330,19.71124
58.40000,48.66675,19.59487
58.50000,48.74993,19.52730
58.60000,48.83330,19.80136
58.70000,48.91668,19.68518
58.80000,48.99987,19.74417
58.90000,49.08337,19.62858
59.00000,49.16674,19.76750
59.10000,49.24993,19.75971
59.20000,49.33331,19.62010
59.30000,49.41674,19.90494
59.40000,49.49987,20.09624
59.50000,49.58331,19.88809
59.60000,49.66668,19.91415
59.70000,49.74993,19.93978
59.80000,49.83330,19.93204
59.90000,49.91674,19.83262
60.00000,49.99993,20.10481
60.10000,50.08337,20.14166
60.20000,50.16674,20.10525
60.30000,50.24993,19.91851
60.40000,50.33331,20.18375
60.50000,50.41674,19.94703
60.60000,50.49993,20.24716
60.70000,50.58337,20.45129
60.80000,50.66680,20.11079
60.90000,50.74987,20.21369
61.00000,50.83337,20.11167
61.10000,50.91668,20.37318
61.20000,50.99987,20.20159
61.30000,51.08330,20.20462
61.40000,51.16674,20.56820
61.50000,51.24993,20.35407
61.60000,51.33336,20.40249
61.70000,51.41668,20.10672
61.80000,51.49987,20.48226
61.90000,51.58337,20.33766
62.00000,51.66674,20.51514
62.10000,51.74993,20.28827
62.20000,51.83343,20.50514
62.30000,51.91674,20.57923
62.40000,51.99993,20.30439
62.50000,52.08330,20.53797
62.60000,52.16668,20.29385
62.70000,52.24993,20.67811
62.80000,52.33331,20.58124
62.90000,52.41674,20.55404
63.00000,52.49986,20.63465
63.10000,52.58337,20.73167
63.20000,52.66674,20.77067
63.30000,52.74993,20.66449
63.40000,52.83337,20.71138
63.50000,52.91674,20.54395
63.60000,52.99993,20.73990
63.70000,53.08324,20.79762
63.80000,53.16674,20.93751
63.90000,53.24987,20.77856
64.00000,53.33330,20.71633
64.10001,53.41674,20.77194
64.20000,53.49987,20.97887
64.30000,53.58336,20.89856
64.40000,53.66674,20.83917
64.50000,53.74993,20.95084
64.60001,53.83337,20.88112
64.70000,53.91668,21.01170
64.80000,53.99993,20.95266
64.90000,54.08330,21.14518
65.00000,54.16675,21.12460
65.10001,54.24987,20.91703
65.20000,54.33330,21.19246
65.30000,54.41674,20.95623
65.40000,54.49993,21.04845
65.50000,54.58331,20.99210
65.60001,54.66668,21.35837
65.70001,54.74993,21.32461
65.80000,54.83337,21.21133
65.90000,54.91674,21.31996
66.00000,54.99993,21.27507
66.10001,55.08331,21.17546
66.20001,55.16674,21.46735
66.30000,55.24987,21.19574
66.40000,55.33330,21.40532
66.50000,55.41680,21.37675
66.60001,55.49993,21.49288
66.70001,55.58337,21.52551
66.80000,55.66674,21.58828
66.90000,55.74993,21.52169
67.00000,55.83331,21.52189
67.10001,55.91668,21.39331
67.20001,55.99987,21.52233
67.30000,56.08337,21.48715
67.40000,56.16674,21.56109
67.50000,56.24987,21.71970
67.60001,56.33343,21.80594
67.70001,56.41674,21.66301
67.80000,56.49987,21.80751
67.90000,56.58337,21.76110
68.00000,56.66674,21.63816
68.10001,56.74993,21.68692
68.20001,56.83331,21.78075
68.30000,56.91674,21.88032
68.40000,56.99987,21.87503
68.50000,57.08330,21.91795
68.60001,57.16674,21.98557
68.70001,57.24987,21.81907
68.80000,57.33337,21.96764
68.90000,57.41674,21.68246
69.00000,57.49993,21.93799
69.10001,57.58330,21.90139
69.20001,57.66674,22.16780
69.30000,57.74986,22.03090
69.40000,57.83324,22.01826
69.50000,57.91674,22.15227
69.60001,57.99993,22.21195
69.70001,58.08337,22.12096
69.80000,58.16680,22.00934
69.90000,58.24993,22.27492
70.00000,58.33331,22.19539
70.10001,58.41674,22.20950
70.20001,58.49987,22.37355
70.30000,58.58331,22.25105
70.40000,58.66674,22.42451
70.50000,58.74993,22.21298
70.60001,58.83330,22.18858
70.70001,58.91674,22.40834
70.80000,58.99993,22.26306
70.90000,59.08336,22.40555
71.00000,59.16674,22.37140
71.10001,59.24999,22.67961
71.20001,59.33337,22.39364
71.30000,59.41662,22.65011
71.40000,59.49981,22.43118
71.50000,59.58330,22.52751
71.60001,59.66668,22.75227
71.70001,59.74993,22.48674
71.80000,59.83337,22.64388
71.90000,59.91681,22.56715
72.00000,59.99999,22.71513
72.10001,60.08337,22.67299
72.20001,60.16674,22.76790
72.30000,60.24987,22.56132
72.40000,60.33331,22.83670
72.50000,60.41668,22.57582
72.60001,60.49987,22.86483
72.70001,60.58337,22.68323
72.80000,60.66674,22.89187
72.90000,60.74993,23.02966
73.00000,60.83337,23.01310
73.10001,60.91668,22.94421
73.20001,60.99993,22.93019
73.30000,61.08331,22.95440
73.40000,61.16681,23.05396
73.50000,61.24993,23.06788
73.60001,61.33331,23.11227
73.70001,61.41668,23.01114
73.80000,61.49987,23.20802
73.90000,61.58330,23.29029
74.00000,61.66674,22.98977
74.10001,61.74999,23.26065
74.20001,61.83343,23.41603
74.30000,61.91680,23.15917
74.40000,61.99993,23.17568
74.50000,62.08330,23.43749
74.60001,62.16668,23.31509
74.70001,62.24987,23.16936
74.80000,62.33331,23.16843
74.90000,62.41681,23.51074
75.00000,62.49993,23.26672
75.10001,62.58336,23.36948
